#Quasar bolometric luminosity function in different Eddington ratio bins from TRINITY PaperIII (Fig. 8, Zhang+2024, MNRAS, 529, 2777)
#z: 1.00
#log10(Lbol [erg/s])(0) log10(QLF_total [Mpc^-3 dex^-1])(1) log10(QLF(-3<logEta<-2) [Mpc^-3 dex^-1])(2) log10(QLF(-3<logEta<-2)_16th [Mpc^-3 dex^-1])(3) log10(QLF(-3<logEta<-2)_84th [Mpc^-3 dex^-1])(4)
#log10(QLF(-2<logEta<-1) [Mpc^-3 dex^-1])(5) log10(QLF(-2<logEta<-1)_16th [Mpc^-3 dex^-1])(6) log10(QLF(-2<logEta<-1)_84th [Mpc^-3 dex^-1])(7)
#log10(QLF(-1<logEta<0) [Mpc^-3 dex^-1])(8) log10(QLF(-1<logEta<0)_16th [Mpc^-3 dex^-1])(9) log10(QLF(-1<logEta<0)_84th [Mpc^-3 dex^-1])(10)
#log10(QLF(0<logEta<1) [Mpc^-3 dex^-1])(11) log10(QLF(0<logEta<1)_16th [Mpc^-3 dex^-1])(12) log10(QLF(0<logEta<1)_84th [Mpc^-3 dex^-1])(13)
40.000000 -3.847886 -5.583247 -5.709562 -5.311467 -5.498000 -5.575844 -5.063906 -5.493359 -5.547907 -4.943282 -inf nan nan
40.040000 -3.841991 -5.572011 -5.695816 -5.303195 -5.485996 -5.562553 -5.054272 -5.462699 -5.518784 -4.916444 nan nan nan
40.080000 -3.836175 -5.560754 -5.682093 -5.294717 -5.475017 -5.550185 -5.045587 -5.433157 -5.490816 -4.890138 nan nan nan
40.120000 -3.830348 -5.549488 -5.668315 -5.286259 -5.463720 -5.537415 -5.037012 -5.412599 -5.471173 -4.872381 -7.125168 -7.120205 -6.539417
40.160000 -3.824512 -5.538285 -5.654607 -5.277854 -5.452430 -5.524773 -5.027976 -5.400485 -5.458900 -4.863811 -6.637644 -6.624788 -6.044417
40.200000 -3.818754 -5.526803 -5.640617 -5.269146 -5.441951 -5.512821 -5.020523 -5.388512 -5.458715 -4.856779 -6.405862 -6.388687 -5.797493
40.240000 -3.812911 -5.515405 -5.626668 -5.260552 -5.429858 -5.499527 -5.013531 -5.376073 -5.444222 -4.847634 -6.249224 -6.206041 -5.631976
40.280000 -3.807146 -5.503772 -5.612492 -5.251670 -5.418671 -5.487086 -5.007245 -5.363833 -5.431831 -4.840722 -6.129873 -6.071145 -5.500157
40.320000 -3.801326 -5.492217 -5.598393 -5.242839 -5.407287 -5.474194 -5.000567 -5.351503 -5.417205 -4.832550 -6.023986 -5.953191 -5.397126
40.360000 -3.795453 -5.480437 -5.584019 -5.233786 -5.395743 -5.460677 -4.993801 -5.339121 -5.403447 -4.825055 -5.929087 -5.848132 -5.297470
40.400000 -3.789658 -5.468733 -5.571359 -5.224734 -5.385048 -5.448381 -4.987528 -5.326965 -5.389838 -4.818381 -5.848448 -5.766252 -5.215736
40.440000 -3.783588 -5.456825 -5.558401 -5.215537 -5.373139 -5.434562 -4.980242 -5.314528 -5.374673 -4.810343 -5.760344 -5.676217 -5.131626
40.480000 -3.777602 -5.444944 -5.545517 -5.205111 -5.361954 -5.421690 -4.973657 -5.302342 -5.360953 -4.803453 -5.685125 -5.599472 -5.076170
40.520000 -3.771494 -5.433140 -5.532622 -5.194382 -5.350694 -5.408717 -4.967050 -5.290184 -5.345927 -4.795625 -5.610044 -5.519822 -5.035815
40.560000 -3.765273 -5.421014 -5.519372 -5.183190 -5.339131 -5.395363 -4.960521 -5.277995 -5.331997 -4.788415 -5.536814 -5.444231 -4.963917
40.600000 -3.759138 -5.409171 -5.506416 -5.172407 -5.328507 -5.382991 -4.954211 -5.266137 -5.322740 -4.781489 -5.472741 -5.380048 -4.901180
40.640000 -3.752619 -5.396999 -5.492941 -5.161509 -5.316638 -5.369166 -4.944874 -5.253972 -5.309821 -4.773938 -5.399906 -5.313582 -4.839870
40.680000 -3.746196 -5.385044 -5.479695 -5.151556 -5.305652 -5.356150 -4.936305 -5.242174 -5.297151 -4.766430 -5.336374 -5.258682 -4.785847
40.720000 -3.739632 -5.372887 -5.466220 -5.143198 -5.294436 -5.342635 -4.927743 -5.230331 -5.284471 -4.759382 -5.273352 -5.207504 -4.742122
40.760000 -3.732933 -5.360762 -5.452659 -5.134796 -5.282939 -5.328538 -4.918388 -5.218532 -5.269839 -4.751758 -5.211551 -5.148531 -4.719748
40.800000 -3.726337 -5.348587 -5.439175 -5.126407 -5.272439 -5.315413 -4.910436 -5.206959 -5.255240 -4.745410 -5.156776 -5.092745 -4.708558
40.840000 -3.719691 -5.336189 -5.425258 -5.118102 -5.260881 -5.301474 -4.900175 -5.195174 -5.240111 -4.737473 -5.103759 -5.060206 -4.690374
40.880000 -3.713145 -5.323969 -5.411585 -5.110221 -5.250354 -5.290723 -4.891164 -5.183634 -5.228523 -4.730421 -5.055909 -5.038240 -4.686479
40.920000 -3.706945 -5.311170 -5.397403 -5.100690 -5.239465 -5.279680 -4.881720 -5.172064 -5.216896 -4.723622 -5.017639 -5.037876 -4.681396
40.960000 -3.701079 -5.298578 -5.382943 -5.090628 -5.228446 -5.268801 -4.871950 -5.160562 -5.205700 -4.715823 -4.986885 -5.037333 -4.675042
41.000000 -3.695291 -5.285573 -5.368002 -5.080411 -5.218243 -5.258935 -4.863337 -5.149179 -5.194781 -4.710361 -4.957725 -5.005944 -4.667374
41.040000 -3.690368 -5.272542 -5.352743 -5.069834 -5.207405 -5.247541 -4.852961 -5.137744 -5.181694 -4.702221 -4.944146 -5.006270 -4.664174
41.080000 -3.685501 -5.259246 -5.337050 -5.059049 -5.197448 -5.237051 -4.843953 -5.126422 -5.168175 -4.696036 -4.930550 -5.004152 -4.663291
41.120000 -3.680905 -5.245844 -5.320553 -5.048075 -5.187098 -5.226017 -4.834280 -5.115194 -5.154782 -4.688989 -4.924100 -5.002553 -4.663649
41.160000 -3.676571 -5.232270 -5.303917 -5.036937 -5.176666 -5.214245 -4.824756 -5.103959 -5.141342 -4.682021 -4.920815 -5.000360 -4.664676
41.200000 -3.672280 -5.218511 -5.288875 -5.025545 -5.166764 -5.202112 -4.815721 -5.092919 -5.128303 -4.674113 -4.913323 -4.996358 -4.662014
41.240000 -3.668189 -5.204817 -5.275354 -5.014048 -5.154705 -5.188291 -4.804942 -5.081810 -5.114985 -4.666099 -4.911842 -4.992867 -4.664368
41.280000 -3.664136 -5.190490 -5.261637 -5.002059 -5.143338 -5.175376 -4.795077 -5.070810 -5.102177 -4.658370 -4.905936 -4.987060 -4.660395
41.320000 -3.660189 -5.176458 -5.242685 -4.990167 -5.131603 -5.161250 -4.784795 -5.059940 -5.090362 -4.650475 -4.902327 -4.982599 -4.661606
41.360000 -3.656346 -5.161847 -5.225745 -4.977846 -5.119444 -5.146039 -4.774165 -5.048989 -5.079331 -4.642896 -4.898122 -4.977273 -4.663440
41.400000 -3.652536 -5.147426 -5.209486 -4.965657 -5.108103 -5.131945 -4.766139 -5.038272 -5.068040 -4.635165 -4.892504 -4.971659 -4.664599
41.440000 -3.648918 -5.132491 -5.193284 -4.950840 -5.095432 -5.115868 -4.758403 -5.027432 -5.055945 -4.627608 -4.889593 -4.967589 -4.665801
41.480000 -3.645329 -5.117482 -5.177179 -4.939162 -5.083550 -5.100207 -4.751042 -5.016674 -5.044790 -4.620308 -4.885357 -4.962202 -4.666121
41.520000 -3.641875 -5.102254 -5.160879 -4.927304 -5.071552 -5.083793 -4.743857 -5.005949 -5.032924 -4.612616 -4.880948 -4.957628 -4.666678
41.560000 -3.638552 -5.086485 -5.142998 -4.914954 -5.059135 -5.068230 -4.736640 -4.995178 -5.021625 -4.604311 -4.877759 -4.953070 -4.667586
41.600000 -3.635255 -5.071029 -5.124928 -4.900887 -5.047757 -5.056216 -4.729908 -4.984480 -5.010146 -4.598423 -4.872733 -4.947697 -4.667571
41.640000 -3.632229 -5.054192 -5.107516 -4.881579 -5.034906 -5.041698 -4.722253 -4.973725 -4.998141 -4.591534 -4.869692 -4.943984 -4.670656
41.680000 -3.629224 -5.037834 -5.092078 -4.870596 -5.023045 -5.029353 -4.715297 -4.963035 -4.986383 -4.584367 -4.866706 -4.939358 -4.671755
41.720000 -3.626357 -5.020369 -5.076621 -4.859062 -5.010803 -5.013781 -4.707690 -4.952302 -4.974584 -4.577232 -4.862180 -4.934817 -4.670259
41.760000 -3.623625 -5.002945 -5.060286 -4.847135 -4.998296 -4.999952 -4.696988 -4.941700 -4.962653 -4.570596 -4.859891 -4.935016 -4.671211
41.800000 -3.620910 -4.984819 -5.042407 -4.830553 -4.986655 -4.987258 -4.686099 -4.931016 -4.951344 -4.563169 -4.854484 -4.935532 -4.671021
41.840000 -3.618442 -4.966180 -5.024534 -4.812273 -4.973617 -4.972933 -4.673490 -4.920519 -4.940400 -4.556960 -4.853044 -4.937183 -4.672538
41.880000 -3.615987 -4.947313 -5.004894 -4.793085 -4.961598 -4.959881 -4.664346 -4.909963 -4.929489 -4.549968 -4.849818 -4.935120 -4.674045
41.920000 -3.613691 -4.927374 -4.981479 -4.772568 -4.949254 -4.945333 -4.653654 -4.899523 -4.918532 -4.543309 -4.846322 -4.931971 -4.675640
41.960000 -3.611550 -4.907945 -4.963832 -4.752776 -4.937166 -4.930326 -4.640969 -4.889168 -4.907620 -4.536761 -4.844406 -4.929592 -4.678472
42.000000 -3.609421 -4.886361 -4.939327 -4.732863 -4.925580 -4.916235 -4.629371 -4.878690 -4.896585 -4.529529 -4.839479 -4.924209 -4.681415
42.040000 -3.607643 -4.865510 -4.911920 -4.713344 -4.912361 -4.901623 -4.616046 -4.868567 -4.885679 -4.523538 -4.838690 -4.923856 -4.682891
42.080000 -3.605873 -4.842923 -4.883228 -4.688978 -4.899822 -4.887911 -4.603877 -4.858177 -4.874619 -4.516620 -4.835489 -4.919944 -4.683662
42.120000 -3.604277 -4.820525 -4.862084 -4.664326 -4.886423 -4.874993 -4.592047 -4.848044 -4.863647 -4.510355 -4.833071 -4.918737 -4.684610
42.160000 -3.602854 -4.796981 -4.841494 -4.643977 -4.872310 -4.861436 -4.580854 -4.837852 -4.852677 -4.503973 -4.831148 -4.916228 -4.685979
42.200000 -3.601435 -4.772836 -4.818243 -4.620471 -4.858888 -4.848424 -4.572962 -4.827455 -4.841536 -4.497308 -4.827810 -4.912239 -4.687211
42.240000 -3.600345 -4.748451 -4.794575 -4.598183 -4.844235 -4.834184 -4.564117 -4.817421 -4.830655 -4.491712 -4.826913 -4.911670 -4.691061
42.280000 -3.599258 -4.722380 -4.770310 -4.572080 -4.830075 -4.820309 -4.555440 -4.807036 -4.819467 -4.485590 -4.824745 -4.908701 -4.694854
42.320000 -3.598345 -4.697507 -4.749297 -4.545252 -4.815912 -4.806396 -4.546451 -4.796819 -4.808179 -4.479758 -4.822809 -4.907210 -4.698828
42.360000 -3.597605 -4.669334 -4.722544 -4.515268 -4.801263 -4.791846 -4.536897 -4.786513 -4.796979 -4.474200 -4.820953 -4.905261 -4.703067
42.400000 -3.596867 -4.642805 -4.696425 -4.487012 -4.787559 -4.778193 -4.527891 -4.776026 -4.785677 -4.467986 -4.818526 -4.902325 -4.704232
42.440000 -3.596483 -4.614034 -4.665480 -4.468312 -4.773015 -4.763714 -4.513125 -4.765893 -4.773807 -4.462965 -4.817692 -4.901903 -4.707670
42.480000 -3.596099 -4.585989 -4.636839 -4.445059 -4.759219 -4.749877 -4.498916 -4.755597 -4.761275 -4.457484 -4.816223 -4.900782 -4.711536
42.520000 -3.595886 -4.557022 -4.608362 -4.424706 -4.745172 -4.735294 -4.484019 -4.745371 -4.748863 -4.453046 -4.814572 -4.899406 -4.716166
42.560000 -3.595845 -4.527778 -4.581115 -4.399010 -4.730676 -4.720001 -4.468261 -4.735268 -4.736756 -4.448918 -4.813865 -4.899473 -4.718850
42.600000 -3.595803 -4.499014 -4.557548 -4.375204 -4.717113 -4.703853 -4.453495 -4.724832 -4.724270 -4.443697 -4.811786 -4.896989 -4.720111
42.640000 -3.596093 -4.469040 -4.528031 -4.348952 -4.700878 -4.685328 -4.437406 -4.715102 -4.712399 -4.439857 -4.811519 -4.898177 -4.720836
42.680000 -3.596384 -4.441105 -4.497029 -4.324586 -4.685715 -4.671928 -4.422618 -4.705038 -4.701908 -4.435195 -4.810607 -4.897401 -4.721161
42.720000 -3.596839 -4.410752 -4.464599 -4.300697 -4.669441 -4.652814 -4.410218 -4.695078 -4.691957 -4.430860 -4.809357 -4.896947 -4.721401
42.760000 -3.597458 -4.382842 -4.436658 -4.277636 -4.652781 -4.637337 -4.398773 -4.685434 -4.680643 -4.426820 -4.809527 -4.900236 -4.723426
42.800000 -3.598078 -4.353927 -4.408726 -4.253858 -4.636514 -4.622279 -4.382995 -4.675091 -4.669455 -4.421773 -4.808206 -4.905239 -4.726267
42.840000 -3.599099 -4.326660 -4.378294 -4.231290 -4.618767 -4.604672 -4.366609 -4.665912 -4.657747 -4.417633 -4.808605 -4.905018 -4.728694
42.880000 -3.600123 -4.299673 -4.352828 -4.206209 -4.601676 -4.586793 -4.354156 -4.656039 -4.649432 -4.412932 -4.808313 -4.904871 -4.731599
42.920000 -3.601335 -4.273599 -4.327599 -4.178465 -4.583848 -4.567493 -4.341954 -4.646295 -4.641416 -4.408108 -4.808074 -4.904648 -4.734279
42.960000 -3.602736 -4.248842 -4.303018 -4.152211 -4.566053 -4.548049 -4.329747 -4.636780 -4.632896 -4.403644 -4.808648 -4.904826 -4.737541
43.000000 -3.604142 -4.224611 -4.277450 -4.128302 -4.547985 -4.528048 -4.317390 -4.626417 -4.621813 -4.398375 -4.808285 -4.902628 -4.739532
43.040000 -3.605711 -4.202507 -4.255458 -4.109550 -4.529113 -4.507222 -4.304623 -4.617331 -4.611654 -4.394255 -4.809203 -4.903826 -4.742117
43.080000 -3.607285 -4.180678 -4.231705 -4.095406 -4.510204 -4.487881 -4.291457 -4.607275 -4.600655 -4.389846 -4.809536 -4.903948 -4.744328
43.120000 -3.608975 -4.160915 -4.209952 -4.077229 -4.491300 -4.470217 -4.276321 -4.597671 -4.591779 -4.385029 -4.810222 -4.905542 -4.746012
43.160000 -3.610783 -4.142386 -4.188534 -4.062547 -4.471713 -4.451638 -4.258268 -4.588048 -4.583104 -4.379798 -4.811571 -4.906715 -4.746672
43.200000 -3.612598 -4.125519 -4.169470 -4.049373 -4.452702 -4.435523 -4.240978 -4.577845 -4.573700 -4.373604 -4.812034 -4.907044 -4.749824
43.240000 -3.614656 -4.110339 -4.152964 -4.038054 -4.433484 -4.420750 -4.224936 -4.569021 -4.565586 -4.369912 -4.813748 -4.908719 -4.754648
43.280000 -3.616723 -4.097004 -4.134208 -4.025999 -4.414343 -4.406128 -4.213432 -4.559168 -4.556518 -4.365114 -4.814970 -4.910790 -4.758599
43.320000 -3.618910 -4.085050 -4.118776 -4.015648 -4.395670 -4.391371 -4.195867 -4.549906 -4.548948 -4.363150 -4.816387 -4.914578 -4.761336
43.360000 -3.621218 -4.075667 -4.105310 -4.006838 -4.375659 -4.375268 -4.174755 -4.540743 -4.543732 -4.361727 -4.818158 -4.917614 -4.764409
43.400000 -3.623538 -4.067262 -4.095044 -3.997884 -4.356951 -4.353888 -4.156969 -4.530971 -4.534196 -4.359237 -4.819668 -4.921066 -4.774207
43.440000 -3.626091 -4.061857 -4.091646 -3.993494 -4.335934 -4.331801 -4.140379 -4.522599 -4.524472 -4.356625 -4.821812 -4.925367 -4.779572
43.480000 -3.628659 -4.057560 -4.085714 -3.990091 -4.315935 -4.315820 -4.122433 -4.513562 -4.514306 -4.353574 -4.823968 -4.929145 -4.783735
43.520000 -3.631360 -4.055859 -4.084287 -3.986993 -4.295479 -4.299577 -4.104287 -4.504742 -4.506296 -4.351191 -4.826408 -4.932554 -4.788620
43.560000 -3.634198 -4.055944 -4.082433 -3.985243 -4.275049 -4.279957 -4.087008 -4.496466 -4.498782 -4.348687 -4.828603 -4.937541 -4.792043
43.600000 -3.637054 -4.057925 -4.081440 -3.989003 -4.255277 -4.259497 -4.070122 -4.487396 -4.490818 -4.347064 -4.831405 -4.940879 -4.798462
43.640000 -3.640228 -4.062581 -4.083053 -3.991973 -4.235317 -4.239172 -4.054586 -4.479620 -4.483948 -4.344292 -4.833904 -4.946017 -4.801376
43.680000 -3.643426 -4.068339 -4.085325 -3.999107 -4.216519 -4.219921 -4.041840 -4.471333 -4.477264 -4.341870 -4.837222 -4.950251 -4.806484
43.720000 -3.646932 -4.077627 -4.095043 -4.004156 -4.197533 -4.199459 -4.033907 -4.463019 -4.466721 -4.335461 -4.840271 -4.954758 -4.810066
43.760000 -3.650756 -4.087558 -4.103228 -4.010391 -4.179771 -4.180057 -4.027008 -4.455537 -4.459500 -4.337331 -4.843843 -4.959570 -4.814260
43.800000 -3.654613 -4.101241 -4.114416 -4.021350 -4.162303 -4.160344 -4.015474 -4.446742 -4.451545 -4.332476 -4.848068 -4.963666 -4.821005
43.840000 -3.658869 -4.115945 -4.127324 -4.031923 -4.146166 -4.141320 -4.002217 -4.440113 -4.445275 -4.329993 -4.851457 -4.969076 -4.825228
43.880000 -3.663167 -4.133565 -4.141763 -4.045090 -4.130520 -4.123876 -3.989914 -4.432456 -4.438353 -4.326178 -4.856544 -4.976063 -4.830377
43.920000 -3.667765 -4.153111 -4.158695 -4.060128 -4.116274 -4.108887 -3.981233 -4.425283 -4.431954 -4.323448 -4.860317 -4.980541 -4.835702
43.960000 -3.672672 -4.174758 -4.180361 -4.078031 -4.102897 -4.098619 -3.973293 -4.419192 -4.427943 -4.324822 -4.865431 -4.985767 -4.843474
44.000000 -3.677635 -4.199202 -4.204029 -4.098715 -4.090628 -4.086295 -3.965409 -4.411372 -4.423883 -4.324265 -4.870701 -4.992236 -4.852729
44.040000 -3.683332 -4.225063 -4.230305 -4.119200 -4.080278 -4.072955 -3.958404 -4.406401 -4.420614 -4.322993 -4.875399 -4.998459 -4.858622
44.080000 -3.689104 -4.254266 -4.261653 -4.142977 -4.070760 -4.063298 -3.953611 -4.400076 -4.413713 -4.324394 -4.881119 -5.005087 -4.866274
44.120000 -3.695452 -4.284798 -4.289752 -4.170264 -4.062960 -4.058775 -3.953420 -4.394951 -4.411024 -4.322732 -4.886490 -5.011134 -4.873346
44.160000 -3.702401 -4.318583 -4.323463 -4.201554 -4.056970 -4.055497 -3.953604 -4.390234 -4.408483 -4.321559 -4.892292 -5.018418 -4.880564
44.200000 -3.709463 -4.354268 -4.361481 -4.234558 -4.051745 -4.054693 -3.952532 -4.385265 -4.408012 -4.319394 -4.898805 -5.027842 -4.889319
44.240000 -3.717638 -4.392428 -4.400397 -4.270141 -4.050019 -4.050282 -3.956172 -4.382177 -4.406678 -4.315899 -4.904566 -5.035030 -4.896276
44.280000 -3.725971 -4.432971 -4.440657 -4.308045 -4.049353 -4.056442 -3.958433 -4.378665 -4.406531 -4.317032 -4.910288 -5.042729 -4.903703
44.320000 -3.735132 -4.476129 -4.483461 -4.346470 -4.050070 -4.055691 -3.964559 -4.376583 -4.409318 -4.319436 -4.917122 -5.052268 -4.912797
44.360000 -3.745174 -4.521321 -4.528035 -4.386308 -4.053707 -4.052934 -3.969836 -4.374170 -4.411137 -4.321344 -4.922890 -5.058632 -4.919157
44.400000 -3.755452 -4.570065 -4.575673 -4.429063 -4.057099 -4.050344 -3.973684 -4.372875 -4.412939 -4.323336 -4.931377 -5.069113 -4.927088
44.440000 -3.767396 -4.619617 -4.624643 -4.473621 -4.064344 -4.060533 -3.982510 -4.372180 -4.415760 -4.325387 -4.936936 -5.074861 -4.932017
44.480000 -3.779678 -4.673119 -4.677036 -4.521320 -4.071548 -4.067633 -3.988654 -4.372499 -4.417571 -4.328393 -4.944805 -5.083611 -4.938985
44.520000 -3.793008 -4.728209 -4.730757 -4.573284 -4.081539 -4.081836 -4.001253 -4.373173 -4.422302 -4.332181 -4.952801 -5.092774 -4.946250
44.560000 -3.807474 -4.786430 -4.787474 -4.626577 -4.093744 -4.089649 -4.014505 -4.374998 -4.426156 -4.336716 -4.959804 -5.099759 -4.952221
44.600000 -3.822439 -4.847464 -4.846665 -4.681327 -4.106450 -4.106097 -4.029324 -4.377685 -4.431650 -4.341632 -4.970960 -5.112142 -4.962151
44.640000 -3.839282 -4.910026 -4.907352 -4.737945 -4.124049 -4.126508 -4.044068 -4.380933 -4.436109 -4.349492 -4.976629 -5.117724 -4.967057
44.680000 -3.856805 -4.977234 -4.973631 -4.800630 -4.141545 -4.142253 -4.058506 -4.386051 -4.443909 -4.354956 -4.986898 -5.128719 -4.976037
44.720000 -3.875512 -5.044234 -5.039769 -4.865868 -4.162629 -4.162737 -4.080067 -4.390888 -4.450712 -4.360949 -4.995465 -5.138410 -4.983726
44.760000 -3.895528 -5.118339 -5.113914 -4.938055 -4.184948 -4.187288 -4.100343 -4.397644 -4.459404 -4.368873 -5.004560 -5.147984 -4.991820
44.800000 -3.916513 -5.189404 -5.185500 -5.008044 -4.209331 -4.215052 -4.124664 -4.405455 -4.468998 -4.375403 -5.016457 -5.161502 -5.003991
44.840000 -3.938846 -5.267658 -5.264282 -5.079316 -4.236915 -4.245174 -4.151818 -4.413771 -4.478877 -4.385828 -5.024141 -5.169146 -5.011589
44.880000 -3.962390 -5.345176 -5.343428 -5.147721 -4.266054 -4.278348 -4.181891 -4.423826 -4.491676 -4.400948 -5.035752 -5.181195 -5.023503
44.920000 -3.987022 -5.427792 -5.424037 -5.226599 -4.297419 -4.312640 -4.214467 -4.435023 -4.504665 -4.415410 -5.045835 -5.192075 -5.034124
44.960000 -4.012857 -5.512479 -5.504161 -5.307621 -4.331239 -4.350089 -4.249358 -4.447056 -4.517954 -4.427288 -5.057215 -5.203149 -5.046087
45.000000 -4.040328 -5.598900 -5.589647 -5.393997 -4.366775 -4.386996 -4.284285 -4.461930 -4.535368 -4.442838 -5.069877 -5.215769 -5.059654
45.040000 -4.068172 -5.691619 -5.682703 -5.485702 -4.405177 -4.426857 -4.320070 -4.475929 -4.550130 -4.458856 -5.079528 -5.225034 -5.070659
45.080000 -4.097924 -5.780422 -5.771138 -5.574268 -4.446136 -4.468036 -4.360504 -4.492585 -4.568393 -4.474535 -5.091564 -5.238123 -5.084638
45.120000 -4.128462 -5.882840 -5.873857 -5.668229 -4.488687 -4.512021 -4.401099 -4.510407 -4.587427 -4.491340 -5.104073 -5.251038 -5.099055
45.160000 -4.159802 -5.973361 -5.960941 -5.751726 -4.535043 -4.559486 -4.444520 -4.528963 -4.606428 -4.509695 -5.115565 -5.261446 -5.111900
45.200000 -4.193580 -6.078976 -6.062808 -5.852361 -4.582778 -4.608379 -4.488050 -4.551341 -4.629060 -4.532443 -5.131323 -5.276951 -5.128086
45.240000 -4.226306 -6.177927 -6.162555 -5.945291 -4.633299 -4.658734 -4.532742 -4.571470 -4.647578 -4.552663 -5.142105 -5.287389 -5.137624
45.280000 -4.261701 -6.285045 -6.273715 -6.048035 -4.686051 -4.709067 -4.582647 -4.595760 -4.670742 -4.575649 -5.156244 -5.301868 -5.150271
45.320000 -4.297641 -6.394286 -6.384257 -6.153810 -4.740803 -4.761162 -4.635033 -4.620468 -4.694101 -4.599185 -5.171594 -5.317048 -5.164462
45.360000 -4.334001 -6.502093 -6.492269 -6.258886 -4.798073 -4.817733 -4.690300 -4.646598 -4.717955 -4.624176 -5.183859 -5.327818 -5.175141
45.400000 -4.373686 -6.622496 -6.613176 -6.374694 -4.857893 -4.877417 -4.748103 -4.676592 -4.746781 -4.652320 -5.202872 -5.346471 -5.192705
45.440000 -4.410592 -6.730309 -6.719156 -6.479790 -4.919330 -4.938720 -4.806941 -4.704199 -4.773296 -4.676962 -5.214450 -5.356372 -5.202811
