#Cosmic AGN radiative luminosity density as a function of redshift,
#including total density and densities in different SMBH mass bins
#(best-fitting model, 16th, and 84th percentile values).
#These data are used make Fig. 8 (Top Panel) from TRINITY PaperIII ( arXiv:2305.19315)
#z log10(rho_rad_tot [erg/s/Mpc^3]) log10(rho_rad_tot_16 [erg/s/Mpc^3]) log10(rho_rad_tot_84 [erg/s/Mpc^3]) log10(rho_rad(6<log10Mbh<7) [erg/s/Mpc^3]) log10(rho_rad(6<log10Mbh<7)_16 [erg/s/Mpc^3]) log10(rho_rad(6<log10Mbh<7)_84 [erg/s/Mpc^3]) log10(rho_rad(7<log10Mbh<8) [erg/s/Mpc^3]) log10(rho_rad(7<log10Mbh<8)_16 [erg/s/Mpc^3]) log10(rho_rad(7<log10Mbh<8)_84 [erg/s/Mpc^3]) log10(rho_rad(8<log10Mbh<9) [erg/s/Mpc^3]) log10(rho_rad(8<log10Mbh<9)_16 [erg/s/Mpc^3]) log10(rho_rad(8<log10Mbh<9)_84 [erg/s/Mpc^3]) log10(rho_rad(9<log10Mbh<10) [erg/s/Mpc^3]) log10(rho_rad(9<log10Mbh<10)_16 [erg/s/Mpc^3]) log10(rho_rad(9<log10Mbh<10)_84 [erg/s/Mpc^3])
15.000000 -inf -inf -inf -inf -inf -inf -inf -inf -inf -inf -inf -inf -inf
14.754081 34.198028 32.528022 31.920732 33.314296 33.189053 32.423979 34.086234 33.675491 32.797686 34.643174 33.672461 32.385789 34.974218
14.511940 34.690170 32.919023 32.351945 33.679344 33.480163 32.963301 34.403802 34.138341 33.532221 35.073579 34.184667 33.565916 35.470046
14.273522 34.893390 33.158188 32.610175 33.925903 33.718025 33.233586 34.636170 34.339749 33.877321 35.240102 34.395897 33.958722 35.673189
14.038768 35.043126 33.359813 32.860433 34.126930 33.940655 33.517412 34.818609 34.482840 34.112502 35.414360 34.528940 34.245496 35.809710
13.807623 35.172973 33.557134 33.062946 34.246387 34.167764 33.726394 34.975960 34.608182 34.324213 35.551194 34.668041 34.482377 35.979413
13.580029 35.309137 33.780013 33.249810 34.438630 34.406791 33.913242 35.159039 34.732210 34.516150 35.660863 34.811114 34.669793 36.105750
13.355935 35.462909 33.988191 33.528009 34.624871 34.643871 34.171263 35.318954 34.881249 34.726045 35.863803 34.963952 34.805418 36.225719
13.135285 35.621315 34.196289 33.796051 34.881339 34.846342 34.415899 35.531279 35.048105 34.927270 36.011822 35.108112 34.973083 36.343886
12.918026 35.732138 34.365008 33.964763 35.012636 34.991658 34.583322 35.646620 35.169292 35.076978 36.121330 35.202359 35.109068 36.397371
12.704106 35.815263 34.535572 34.139121 35.106491 35.112774 34.700885 35.761340 35.261810 35.161369 36.216592 35.261669 35.201888 36.407153
12.493474 35.910546 34.704552 34.251663 35.245551 35.234756 34.834633 35.885164 35.371015 35.219721 36.330347 35.334701 35.314671 36.434944
12.286079 36.021385 34.885891 34.422438 35.404841 35.364425 35.001430 36.022680 35.495818 35.302596 36.430283 35.426026 35.406653 36.524924
12.081873 36.148838 35.079792 34.605407 35.566082 35.504161 35.154959 36.179706 35.631310 35.462806 36.550365 35.534945 35.498433 36.582182
11.880805 36.289933 35.280629 34.803053 35.736121 35.656813 35.311349 36.343671 35.776132 35.592893 36.680262 35.658838 35.636468 36.676117
11.682827 36.443106 35.483466 35.003369 35.925388 35.825254 35.512735 36.522959 35.930146 35.743376 36.813193 35.793838 35.762974 36.791177
11.487892 36.607703 35.683345 35.230130 36.108354 36.007188 35.702913 36.703003 36.094900 35.931755 36.949377 35.939220 35.936763 36.907388
11.295954 36.768469 35.848423 35.409122 36.257700 36.185224 35.931612 36.851463 36.262532 36.179645 37.089621 36.085718 36.081922 37.027413
11.106965 36.879689 35.983430 35.547913 36.374300 36.311235 36.054395 36.975317 36.370706 36.248445 37.161263 36.178818 36.180461 37.079370
10.920881 36.996145 36.119056 35.708172 36.505349 36.443626 36.181689 37.078573 36.484971 36.362819 37.240310 36.275610 36.251162 37.133871
10.737657 37.119507 36.263526 35.870870 36.638794 36.580734 36.308365 37.187583 36.605218 36.454801 37.321066 36.380159 36.334033 37.187858
10.557250 37.250466 36.415347 36.034021 36.782534 36.723475 36.468234 37.308708 36.733382 36.575283 37.405914 36.491986 36.423686 37.269148
10.379615 37.388673 36.565221 36.198576 36.931091 36.874384 36.613659 37.435273 36.868690 36.695254 37.516693 36.611988 36.522250 37.357383
10.204711 37.535232 36.727814 36.373627 37.082735 37.030851 36.760610 37.572264 37.011984 36.829139 37.643972 36.741484 36.641013 37.464808
10.032495 37.683304 36.881589 36.545524 37.222588 37.187835 36.917090 37.702178 37.159672 36.966581 37.772454 36.875280 36.765510 37.578686
9.862926 37.815470 37.015639 36.680912 37.336886 37.328315 37.061100 37.813425 37.293292 37.087493 37.877744 36.997371 36.877940 37.673025
9.695962 37.927313 37.135173 36.808400 37.438644 37.445518 37.177722 37.903065 37.403909 37.187680 37.957364 37.098139 36.968472 37.743188
9.531566 38.042106 37.257498 36.929185 37.549718 37.565983 37.296913 38.001046 37.517119 37.291183 38.056802 37.201589 37.062907 37.816258
9.369696 38.160560 37.384176 37.062528 37.658202 37.689627 37.408950 38.093847 37.633632 37.399398 38.149448 37.308657 37.158512 37.897947
9.210314 38.283266 37.515269 37.196025 37.770036 37.815927 37.518789 38.191288 37.754707 37.512690 38.245645 37.421095 37.246859 37.981593
9.053381 38.409988 37.649879 37.333585 37.891136 37.946354 37.634437 38.302170 37.879963 37.629786 38.346219 37.538300 37.342075 38.059027
8.898861 38.536236 37.773960 37.470659 38.005077 38.076994 37.780092 38.424618 38.008232 37.757599 38.450714 37.658088 37.469895 38.154898
8.746716 38.643317 37.879114 37.579563 38.094813 38.186143 37.892207 38.512730 38.117741 37.867062 38.535858 37.762649 37.568694 38.227153
8.596909 38.741211 37.978173 37.684762 38.180455 38.285843 37.980397 38.589952 38.216702 37.962734 38.610051 37.856690 37.653964 38.296683
8.449405 38.840862 38.079860 37.795417 38.268888 38.386621 38.071117 38.669298 38.317389 38.054657 38.685822 37.953087 37.751093 38.371383
8.304168 38.942844 38.184558 37.902761 38.361315 38.489918 38.175700 38.753639 38.420080 38.162456 38.765379 38.050676 37.848734 38.448933
8.161163 39.047306 38.292242 38.009683 38.458476 38.594770 38.286067 38.843112 38.525402 38.274455 38.848437 38.152151 37.950505 38.528398
8.020356 39.152785 38.394177 38.118341 38.549338 38.701735 38.400532 38.936298 38.633848 38.390506 38.935137 38.256989 38.056288 38.601717
7.881713 39.245984 38.481282 38.209407 38.622957 38.796374 38.503642 39.019461 38.730636 38.492267 39.009704 38.351058 38.154246 38.668646
7.745201 39.327564 38.560685 38.290356 38.691539 38.877047 38.594087 39.085543 38.814975 38.581412 39.071025 38.435139 38.238987 38.738133
7.610788 39.410411 38.641789 38.374420 38.762750 38.959577 38.684962 39.148837 38.899965 38.672815 39.134544 38.518591 38.323616 38.805609
7.478440 39.495484 38.725240 38.458607 38.842951 39.043270 38.775199 39.219592 38.987774 38.764999 39.200504 38.605629 38.409850 38.874597
7.348127 39.582565 38.811146 38.546304 38.923142 39.129450 38.863420 39.297159 39.077321 38.861189 39.271397 38.693705 38.498328 38.948242
7.219816 39.669040 38.889800 38.635464 38.992199 39.216216 38.967926 39.376876 39.167971 38.957424 39.354812 38.783748 38.596981 39.016069
7.093478 39.738801 38.953863 38.703039 39.052821 39.284367 39.040270 39.439827 39.241732 39.038080 39.413781 38.858577 38.675830 39.072865
6.969082 39.806782 39.017012 38.769979 39.110627 39.349744 39.109305 39.500978 39.313457 39.116556 39.468750 38.932053 38.750145 39.131352
6.846597 39.876204 39.082358 38.834423 39.170553 39.417431 39.178817 39.562302 39.385940 39.196749 39.526653 39.005176 38.826890 39.190546
6.725995 39.947191 39.149963 38.904475 39.232640 39.485913 39.250209 39.618345 39.460244 39.273780 39.589035 39.080846 38.900317 39.253172
6.607246 40.020423 39.214958 38.984215 39.293410 39.557978 39.331318 39.672073 39.538236 39.359244 39.658007 39.158558 38.985216 39.315526
6.490323 40.080309 39.267367 39.043353 39.342008 39.615226 39.399681 39.716496 39.602044 39.425915 39.713243 39.225654 39.055919 39.372588
6.375197 40.137259 39.317469 39.098980 39.389538 39.669142 39.460403 39.761216 39.663330 39.490026 39.769031 39.288982 39.123140 39.424022
6.261840 40.194671 39.369407 39.157191 39.439691 39.723043 39.522275 39.808679 39.724619 39.553020 39.825336 39.353110 39.195308 39.477244
6.150226 40.255563 39.423384 39.216879 39.493034 39.780659 39.584508 39.857913 39.790181 39.618568 39.886233 39.419216 39.268457 39.529960
6.040327 40.316572 39.475527 39.282231 39.540141 39.839772 39.654894 39.908980 39.855535 39.696181 39.949371 39.485705 39.340185 39.585887
5.932117 40.365063 39.514750 39.325643 39.576125 39.884132 39.706781 39.947454 39.908754 39.752807 39.998366 39.542566 39.395964 39.631329
5.825571 40.412014 39.554294 39.369114 39.612679 39.926936 39.750177 39.985776 39.959987 39.809829 40.044922 39.596614 39.449428 39.682831
5.720662 40.463191 39.596699 39.417316 39.646209 39.973935 39.797380 40.028374 40.016216 39.868083 40.096085 39.654599 39.505654 39.735314
5.617366 40.514594 39.639646 39.468062 39.687402 40.022233 39.848756 40.075281 40.071918 39.935450 40.146743 39.711406 39.564616 39.782180
5.515657 40.562863 39.676923 39.513186 39.724207 40.066500 39.895013 40.114201 40.125334 39.994229 40.193996 39.766941 39.626301 39.831421
5.415511 40.602430 39.707345 39.549846 39.753579 40.101487 39.932738 40.143226 40.169245 40.045434 40.232674 39.813851 39.680776 39.874409
5.316905 40.646204 39.740376 39.585682 39.787893 40.140182 39.972132 40.181792 40.218621 40.095632 40.272486 39.864606 39.734624 39.913830
5.219814 40.690273 39.775560 39.625350 39.817188 40.180428 40.017431 40.223939 40.267040 40.152415 40.319097 39.913876 39.790420 39.961857
5.124216 40.734693 39.808164 39.664453 39.847277 40.221168 40.069596 40.258725 40.316804 40.208769 40.362659 39.963271 39.843368 40.013184
5.030087 40.769020 39.831914 39.692503 39.868538 40.250137 40.108253 40.282435 40.355463 40.256874 40.402723 40.005642 39.884039 40.055764
4.937405 40.807422 39.858144 39.722297 39.895448 40.283616 40.149176 40.310421 40.399832 40.302624 40.441786 40.048864 39.931790 40.096237
4.846147 40.846442 39.886632 39.756997 39.923469 40.318254 40.194535 40.341008 40.443143 40.353964 40.484418 40.093593 39.981739 40.136049
4.756292 40.884272 39.912880 39.790054 39.949649 40.352547 40.233922 40.372333 40.485614 40.394568 40.525294 40.135653 40.027288 40.179061
4.667818 40.915854 39.932264 39.814527 39.967205 40.378194 40.259790 40.398426 40.522298 40.433079 40.557230 40.173721 40.070825 40.217960
4.580703 40.950610 39.953464 39.838372 39.992610 40.408435 40.299498 40.429382 40.563098 40.477135 40.598358 40.211350 40.111709 40.252806
4.494928 40.986368 39.978443 39.867889 40.019021 40.440198 40.336476 40.464269 40.602768 40.523352 40.641670 40.251682 40.155139 40.290973
4.410471 41.017098 39.996567 39.889449 40.033515 40.466924 40.369655 40.492662 40.638218 40.561771 40.676673 40.285930 40.192794 40.326558
4.327312 41.046231 40.012358 39.909173 40.049634 40.490547 40.390992 40.520300 40.672552 40.596866 40.710176 40.319547 40.226809 40.363117
4.245431 41.078002 40.031638 39.932413 40.074375 40.518659 40.419025 40.551119 40.709022 40.632381 40.744408 40.353518 40.262229 40.397440
4.164809 41.110011 40.051744 39.956539 40.093860 40.547027 40.454279 40.579493 40.745646 40.677238 40.780160 40.387336 40.301863 40.433567
4.085426 41.136549 40.063843 39.969711 40.106111 40.568654 40.478360 40.600060 40.776751 40.710273 40.808417 40.418198 40.335757 40.464760
4.007263 41.162996 40.077832 39.985417 40.120480 40.591557 40.503242 40.627447 40.808493 40.745992 40.842394 40.444270 40.367716 40.495283
3.930302 41.192604 40.097289 40.008575 40.141147 40.617866 40.533840 40.658018 40.841475 40.782115 40.877646 40.476098 40.404225 40.530492
3.854523 41.217278 40.107622 40.021570 40.157556 40.639497 40.556422 40.680340 40.871431 40.810829 40.907553 40.499950 40.431970 40.558318
3.779909 41.240979 40.120032 40.034492 40.172399 40.659495 40.581132 40.700960 40.898886 40.841827 40.938360 40.525487 40.460705 40.583996
3.706442 41.269842 40.136119 40.055475 40.189177 40.686759 40.610515 40.726998 40.932224 40.879131 40.967808 40.552175 40.485092 40.613786
3.634104 41.290927 40.146266 40.068270 40.203447 40.704476 40.636117 40.745146 40.957147 40.905009 40.993870 40.573806 40.505692 40.637624
3.562878 41.314532 40.155584 40.078505 40.217619 40.726137 40.658406 40.766079 40.985562 40.931642 41.019994 40.594857 40.531338 40.660670
3.492747 41.337715 40.169064 40.096982 40.236636 40.747318 40.684807 40.788107 41.012216 40.960936 41.050098 40.616746 40.556355 40.686293
3.423694 41.358637 40.178483 40.107557 40.247894 40.766756 40.706436 40.807943 41.036810 40.987999 41.074453 40.635628 40.579490 40.706063
3.355701 41.379079 40.186230 40.116197 40.257992 40.784961 40.723333 40.828184 41.061389 41.013173 41.098894 40.654057 40.598742 40.726415
3.288754 41.402187 40.198819 40.134015 40.273869 40.806400 40.749864 40.851283 41.088259 41.041357 41.124627 40.674404 40.621154 40.744402
3.222836 41.420022 40.207366 40.143519 40.284853 40.823985 40.770465 40.870323 41.109436 41.063556 41.145766 40.687905 40.636299 40.760713
3.157931 41.438927 40.214792 40.153768 40.291807 40.840986 40.789914 40.887976 41.132325 41.085455 41.167944 40.703623 40.652708 40.775934
3.094024 41.458822 40.225472 40.165891 40.302378 40.861569 40.810557 40.911536 41.155392 41.112419 41.190996 40.717882 40.670150 40.796305
3.031099 41.475029 40.230110 40.171287 40.309308 40.875648 40.825605 40.927796 41.175301 41.133476 41.210572 40.731470 40.683111 40.807066
2.969141 41.492252 40.238803 40.181365 40.321406 40.893933 40.841934 40.947406 41.195747 41.154714 41.231085 40.741720 40.697121 40.821052
2.908135 41.509222 40.245846 40.191632 40.331665 40.909631 40.860404 40.966348 41.216005 41.173580 41.250346 40.755033 40.707860 40.834052
2.848067 41.522692 40.250747 40.197789 40.338835 40.923327 40.874980 40.982022 41.232317 41.191855 41.267962 40.763337 40.716306 40.843805
2.788923 41.540855 40.260350 40.206284 40.349888 40.941824 40.895876 41.000102 41.253806 41.214562 41.287200 40.774577 40.728440 40.855528
2.730687 41.552728 40.265610 40.211339 40.354489 40.954384 40.912590 41.017368 41.267975 41.229420 41.304073 40.781197 40.736336 40.863117
2.673346 41.567966 40.271617 40.221203 40.361848 40.970165 40.925337 41.032175 41.286651 41.246565 41.320441 40.788564 40.742215 40.870349
2.616887 41.581204 40.277576 40.228288 40.367975 40.983321 40.938834 41.046931 41.302559 41.261228 41.334795 40.796337 40.746303 40.878412
2.561296 41.592859 40.281472 40.233467 40.373557 40.996550 40.953204 41.060513 41.316977 41.277453 41.348480 40.799627 40.751461 40.883148
2.506559 41.605622 40.287532 40.241126 40.379589 41.009845 40.966199 41.075016 41.332184 41.295391 41.364662 40.806072 40.756224 40.888797
2.452663 41.614321 40.290038 40.245777 40.382536 41.019868 40.975554 41.086789 41.343014 41.308199 41.376982 40.807881 40.757032 40.894437
2.399595 41.627150 40.298399 40.253987 40.389037 41.034298 40.989210 41.101817 41.358208 41.322618 41.391219 40.811847 40.760392 40.900156
2.347344 41.635679 40.301219 40.257174 40.393086 41.046032 40.998420 41.112515 41.368128 41.335112 41.401938 40.812312 40.760001 40.901588
2.295895 41.645953 40.305272 40.261696 40.398560 41.057528 41.009750 41.124381 41.380949 41.345069 41.415068 40.813681 40.760748 40.902681
2.245238 41.652423 40.307393 40.263504 40.403511 41.065915 41.016869 41.132496 41.389108 41.354361 41.424855 40.812242 40.761273 40.899822
2.195358 41.660559 40.311331 40.265628 40.407405 41.075516 41.025734 41.141016 41.399401 41.364360 41.434586 40.811270 40.764513 40.900403
2.146246 41.665984 40.313400 40.271381 40.411152 41.082933 41.034303 41.148774 41.406333 41.372333 41.443691 40.808530 40.766535 40.900711
2.097888 41.671222 40.315541 40.273525 40.414130 41.090129 41.041312 41.154850 41.413184 41.378622 41.450663 40.804956 40.761284 40.898636
2.050273 41.676285 40.318877 40.274885 40.417531 41.097864 41.047065 41.159615 41.419493 41.384083 41.457566 40.800618 40.752854 40.895916
2.003391 41.679565 40.321627 40.276102 40.419873 41.103751 41.052797 41.164092 41.423960 41.387766 41.462800 40.794089 40.745946 40.891554
1.957229 41.682540 40.322470 40.278168 40.422928 41.108830 41.057477 41.168527 41.428213 41.390960 41.466938 40.788224 40.739099 40.885601
1.911776 41.684122 40.323354 40.279051 40.423671 41.113149 41.062700 41.170619 41.430841 41.392443 41.469203 40.779829 40.730902 40.877878
1.867022 41.684278 40.323400 40.278767 40.424341 41.116149 41.065858 41.172375 41.431694 41.393548 41.471716 40.770807 40.719707 40.868635
1.822956 41.685425 40.325486 40.278520 40.426235 41.121664 41.069636 41.175497 41.433129 41.392906 41.470335 40.760601 40.707528 40.857433
1.779567 41.683755 40.324891 40.278992 40.427083 41.122854 41.071801 41.177367 41.432057 41.391854 41.468988 40.749094 40.693802 40.845222
1.736846 41.682362 40.326747 40.279309 40.426386 41.125481 41.073385 41.178155 41.430622 41.388765 41.468468 40.737034 40.680357 40.833654
1.694780 41.677990 40.325034 40.278203 40.425096 41.124539 41.072779 41.178107 41.426330 41.383778 41.465213 40.722676 40.663188 40.819340
1.653361 41.673876 40.324202 40.278520 40.423955 41.124021 41.075258 41.177097 41.422176 41.378431 41.460880 40.708132 40.646333 40.807900
1.612579 41.668321 40.324119 40.276301 40.422726 41.122290 41.072812 41.175293 41.416266 41.372447 41.455473 40.691843 40.625553 40.792405
1.572424 41.661537 40.322214 40.274484 40.421264 41.119758 41.071169 41.172836 41.408894 41.364529 41.448495 40.674210 40.606427 40.776354
1.532886 41.654740 40.320306 40.273702 40.420923 41.116828 41.067350 41.170431 41.401512 41.354807 41.440070 40.657198 40.587119 40.757873
1.493956 41.647463 40.319456 40.271394 40.417955 41.116175 41.064099 41.166994 41.392550 41.344937 41.429533 40.636571 40.565131 40.738018
1.455623 41.638885 40.318867 40.269340 40.415833 41.111967 41.059063 41.162477 41.382817 41.334186 41.418636 40.616864 40.543313 40.719175
1.417881 41.628512 40.315338 40.265995 40.414165 41.106127 41.053310 41.158714 41.371223 41.321988 41.409201 40.595283 40.519191 40.696762
1.380718 41.616960 40.312341 40.263645 40.409438 41.099424 41.045050 41.152437 41.358113 41.307650 41.396615 40.571848 40.493808 40.674998
1.344126 41.605952 40.309104 40.260174 40.404997 41.092900 41.038137 41.146039 41.345527 41.293492 41.384036 40.550206 40.466571 40.651440
1.308097 41.592831 40.304576 40.255628 40.399130 41.084778 41.030960 41.138624 41.330516 41.277430 41.368469 40.525432 40.437851 40.626013
1.272622 41.581088 40.303781 40.252407 40.395740 41.080083 41.020520 41.131338 41.315700 41.259846 41.352288 40.499731 40.410783 40.599199
1.237691 41.567616 40.299337 40.246546 40.391859 41.071430 41.012135 41.123082 41.300074 41.242122 41.336530 40.475008 40.381225 40.573441
1.203298 41.552817 40.294033 40.243191 40.388119 41.061371 41.005194 41.113414 41.282931 41.222225 41.319927 40.449324 40.352259 40.546516
1.169434 41.536999 40.288469 40.237971 40.382685 41.050754 40.995886 41.103626 41.264446 41.202780 41.301412 40.421612 40.323450 40.518861
1.136089 41.520815 40.285904 40.232987 40.378910 41.040245 40.987591 41.094328 41.244834 41.182981 41.283866 40.393076 40.295388 40.495764
1.103258 41.505296 40.280285 40.226123 40.373104 41.030715 40.976741 41.084577 41.225861 41.160623 41.265645 40.365811 40.264429 40.466646
1.070931 41.488954 40.273619 40.220094 40.367561 41.019270 40.965307 41.073216 41.206611 41.141106 41.246850 40.337968 40.233413 40.439795
1.039101 41.470566 40.268139 40.214413 40.362139 41.006033 40.953681 41.061338 41.184560 41.121830 41.226715 40.308126 40.204622 40.414765
1.007760 41.452947 40.263194 40.209097 40.353586 40.993474 40.938829 41.048944 41.163189 41.102140 41.205973 40.279463 40.176504 40.387516
0.976900 41.434455 40.255638 40.204317 40.344713 40.980948 40.925059 41.037397 41.140406 41.079163 41.184843 40.249582 40.147408 40.357154
0.946516 41.415403 40.248736 40.194648 40.336615 40.966183 40.911854 41.024338 41.117642 41.057261 41.165045 40.220877 40.115622 40.326108
