#Quasar bolometric luminosity function in different peak halo mass bins from TRINITY PaperIII (Fig. 6, Zhang+2024, MNRAS, 529, 2777)
#z: 0.10
#log10(Lbol [erg/s])(0) log10(QLF_total [Mpc^-3 dex^-1])(1) log10(QLF(11<logMpeak<12) [Mpc^-3 dex^-1])(2) log10(QLF(11<logMpeak<12)_16th [Mpc^-3 dex^-1])(3) log10(QLF(11<logMpeak<12)_84th [Mpc^-3 dex^-1])(4)
#log10(QLF(12<logMpeak<13) [Mpc^-3 dex^-1])(5) log10(QLF(12<logMpeak<13)_16th [Mpc^-3 dex^-1])(6) log10(QLF(12<logMpeak<13)_84th [Mpc^-3 dex^-1])(7)
#log10(QLF(13<logMpeak<14) [Mpc^-3 dex^-1])(8) log10(QLF(13<logMpeak<14)_16th [Mpc^-3 dex^-1])(9) log10(QLF(13<logMpeak<14)_84th [Mpc^-3 dex^-1])(10)
#log10(QLF(14<logMpeak<15) [Mpc^-3 dex^-1])(11) log10(QLF(14<logMpeak<15)_16th [Mpc^-3 dex^-1])(12) log10(QLF(14<logMpeak<15)_84th [Mpc^-3 dex^-1])(13)
40.000000 -2.767491 -2.915158 -3.105098 -2.777799 -3.381617 -3.509918 -3.365471 -4.144007 -4.331557 -4.171299 -5.280607 -5.554205 -5.254568
40.040000 -2.771796 -2.919463 -3.106655 -2.783945 -3.385922 -3.509702 -3.371432 -4.148310 -4.331110 -4.177240 -5.284909 -5.552828 -5.262988
40.080000 -2.776144 -2.923811 -3.108252 -2.790134 -3.390269 -3.512704 -3.376412 -4.152656 -4.330706 -4.182978 -5.289253 -5.551495 -5.269964
40.120000 -2.781087 -2.928754 -3.110451 -2.796178 -3.395212 -3.516111 -3.383947 -4.157598 -4.332797 -4.187857 -5.294193 -5.550757 -5.275959
40.160000 -2.786647 -2.934315 -3.113258 -2.804320 -3.400772 -3.519036 -3.392014 -4.163156 -4.338734 -4.189308 -5.299750 -5.551885 -5.282571
40.200000 -2.792278 -2.939946 -3.116279 -2.811792 -3.406403 -3.524808 -3.399116 -4.168786 -4.343195 -4.193883 -5.305378 -5.552051 -5.289253
40.240000 -2.798607 -2.946275 -3.124041 -2.819961 -3.412731 -3.529007 -3.407411 -4.175112 -4.350231 -4.203342 -5.311702 -5.552813 -5.296632
40.280000 -2.805029 -2.952696 -3.131902 -2.828225 -3.419155 -3.531909 -3.416181 -4.181533 -4.357183 -4.213061 -5.318120 -5.553510 -5.304106
40.320000 -2.811586 -2.959253 -3.139878 -2.836943 -3.425713 -3.537367 -3.426296 -4.188088 -4.364415 -4.221013 -5.324673 -5.554532 -5.311714
40.360000 -2.818283 -2.965949 -3.146173 -2.845113 -3.432413 -3.546164 -3.433247 -4.194786 -4.371931 -4.228687 -5.331368 -5.556312 -5.320944
40.400000 -2.825084 -2.972748 -3.150008 -2.853809 -3.439219 -3.555170 -3.438135 -4.201589 -4.380801 -4.236038 -5.338168 -5.558266 -5.330959
40.440000 -2.832308 -2.979970 -3.152774 -2.862877 -3.446449 -3.565130 -3.441465 -4.208816 -4.389373 -4.243115 -5.345391 -5.560517 -5.341314
40.480000 -2.839654 -2.987311 -3.162536 -2.872074 -3.453808 -3.572131 -3.449168 -4.216170 -4.397603 -4.250084 -5.352742 -5.564680 -5.352639
40.520000 -2.847290 -2.994944 -3.168179 -2.881556 -3.461454 -3.582214 -3.454765 -4.223812 -4.408158 -4.257107 -5.360379 -5.569614 -5.364946
40.560000 -2.855229 -3.002872 -3.174338 -2.891357 -3.469420 -3.592851 -3.463714 -4.231774 -4.419060 -4.265618 -5.368336 -5.574814 -5.377103
40.600000 -2.863315 -3.010953 -3.180605 -2.901290 -3.477520 -3.602503 -3.474498 -4.239868 -4.429443 -4.275478 -5.376425 -5.579564 -5.387237
40.640000 -2.871707 -3.019322 -3.187643 -2.911571 -3.485968 -3.608236 -3.485630 -4.248311 -4.432006 -4.286608 -5.384862 -5.584662 -5.397721
40.680000 -2.880263 -3.027862 -3.194873 -2.921993 -3.494567 -3.611643 -3.495527 -4.256903 -4.440522 -4.297221 -5.393447 -5.589908 -5.408351
40.720000 -2.888884 -3.036450 -3.204479 -2.932524 -3.503269 -3.617052 -3.506947 -4.265598 -4.449444 -4.306157 -5.402135 -5.595257 -5.420543
40.760000 -2.897569 -3.045091 -3.214657 -2.944330 -3.512064 -3.625022 -3.518450 -4.274386 -4.459014 -4.312464 -5.410914 -5.602526 -5.432090
40.800000 -2.906432 -3.053915 -3.225008 -2.958064 -3.521026 -3.634825 -3.528095 -4.283338 -4.468753 -4.316217 -5.419858 -5.612814 -5.441576
40.840000 -2.915109 -3.062512 -3.235046 -2.971621 -3.529901 -3.644541 -3.536155 -4.292203 -4.478662 -4.320345 -5.428713 -5.623689 -5.454891
40.880000 -2.923963 -3.071314 -3.244478 -2.982917 -3.538888 -3.654882 -3.543052 -4.301180 -4.491031 -4.323847 -5.437678 -5.631829 -5.466740
40.920000 -2.932840 -3.080054 -3.254031 -2.993562 -3.548103 -3.666123 -3.552190 -4.310383 -4.501482 -4.327582 -5.446869 -5.636202 -5.478501
40.960000 -2.941738 -3.088885 -3.263110 -3.003992 -3.557170 -3.674301 -3.561721 -4.319436 -4.509341 -4.331174 -5.455908 -5.640424 -5.488473
41.000000 -2.950822 -3.097751 -3.272722 -3.014903 -3.566800 -3.685419 -3.567617 -4.329052 -4.518853 -4.340849 -5.465509 -5.645208 -5.499072
41.040000 -2.959796 -3.106562 -3.278670 -3.025181 -3.576180 -3.696536 -3.575284 -4.338416 -4.529067 -4.345785 -5.474856 -5.649738 -5.509123
41.080000 -2.968958 -3.115474 -3.284940 -3.035576 -3.585969 -3.708238 -3.581090 -4.348186 -4.539419 -4.353888 -5.484608 -5.657432 -5.517497
41.120000 -2.978138 -3.124317 -3.295522 -3.045932 -3.595991 -3.720428 -3.586764 -4.358188 -4.550405 -4.364575 -5.494589 -5.668705 -5.528337
41.160000 -2.987330 -3.133275 -3.308626 -3.055398 -3.605774 -3.734473 -3.592211 -4.367948 -4.561157 -4.373775 -5.504326 -5.680072 -5.538476
41.200000 -2.996721 -3.142182 -3.322788 -3.066097 -3.616383 -3.749699 -3.598501 -4.378532 -4.572741 -4.386266 -5.514884 -5.688395 -5.545446
41.240000 -3.005976 -3.151162 -3.335318 -3.075896 -3.626335 -3.760900 -3.604493 -4.388456 -4.583676 -4.397170 -5.524780 -5.697568 -5.548137
41.280000 -3.015433 -3.159963 -3.349242 -3.086293 -3.637452 -3.766161 -3.612547 -4.399543 -4.597223 -4.408419 -5.535834 -5.709695 -5.561398
41.320000 -3.024875 -3.169092 -3.359843 -3.095271 -3.647696 -3.778110 -3.621563 -4.409753 -4.609997 -4.416473 -5.546009 -5.719752 -5.575806
41.360000 -3.034296 -3.177676 -3.371364 -3.105160 -3.659255 -3.791371 -3.632441 -4.421275 -4.624083 -4.424818 -5.557492 -5.728246 -5.590181
41.400000 -3.043926 -3.186690 -3.382085 -3.114399 -3.670472 -3.805069 -3.640887 -4.432450 -4.637962 -4.434454 -5.568624 -5.737614 -5.605606
41.440000 -3.053388 -3.195407 -3.389629 -3.118495 -3.681862 -3.820563 -3.651104 -4.443793 -4.652139 -4.445285 -5.579919 -5.752514 -5.619910
41.480000 -3.063061 -3.204057 -3.398156 -3.122665 -3.694197 -3.835193 -3.661904 -4.456078 -4.666897 -4.456671 -5.592150 -5.768354 -5.630830
41.520000 -3.072737 -3.213207 -3.403224 -3.123158 -3.705256 -3.848621 -3.673407 -4.467079 -4.679375 -4.466937 -5.603093 -5.782907 -5.644601
41.560000 -3.082410 -3.221713 -3.411003 -3.130027 -3.718013 -3.863737 -3.686036 -4.479774 -4.693461 -4.476639 -5.615722 -5.795252 -5.657398
41.600000 -3.092304 -3.231064 -3.416996 -3.138404 -3.729355 -3.878694 -3.696994 -4.491046 -4.706122 -4.484019 -5.626921 -5.801169 -5.668767
41.640000 -3.101881 -3.239407 -3.423418 -3.148905 -3.742243 -3.895864 -3.706036 -4.503856 -4.720445 -4.492956 -5.639651 -5.810197 -5.677693
41.680000 -3.111674 -3.248639 -3.430333 -3.157799 -3.753558 -3.911450 -3.713152 -4.515086 -4.733423 -4.500338 -5.650791 -5.821277 -5.683873
41.720000 -3.121443 -3.257188 -3.436749 -3.170551 -3.766652 -3.928655 -3.721609 -4.528085 -4.748030 -4.509513 -5.663691 -5.834837 -5.693099
41.760000 -3.131182 -3.266009 -3.443934 -3.180750 -3.778919 -3.944831 -3.729245 -4.540247 -4.761798 -4.517851 -5.675744 -5.845061 -5.700954
41.800000 -3.141144 -3.275186 -3.447994 -3.193626 -3.791065 -3.960868 -3.736764 -4.552278 -4.775429 -4.525442 -5.687652 -5.858770 -5.709051
41.840000 -3.150813 -3.283611 -3.455691 -3.202082 -3.804214 -3.977889 -3.745292 -4.565298 -4.790832 -4.534061 -5.700537 -5.873976 -5.720692
41.880000 -3.160701 -3.293168 -3.463876 -3.211875 -3.815053 -3.992580 -3.751649 -4.575995 -4.805608 -4.540398 -5.711085 -5.885598 -5.726081
41.920000 -3.170590 -3.301944 -3.472904 -3.225823 -3.828103 -4.009460 -3.760452 -4.588888 -4.820421 -4.548081 -5.723813 -5.900518 -5.737528
41.960000 -3.180475 -3.311485 -3.479021 -3.234763 -3.838994 -4.024156 -3.767098 -4.599606 -4.833935 -4.552313 -5.734347 -5.913417 -5.748768
42.000000 -3.190591 -3.320784 -3.482179 -3.248243 -3.851471 -4.040264 -3.775335 -4.611892 -4.849371 -4.558184 -5.746430 -5.929058 -5.761778
42.040000 -3.200658 -3.330501 -3.494631 -3.260769 -3.862575 -4.053937 -3.782204 -4.622785 -4.863375 -4.566320 -5.757098 -5.939458 -5.774322
42.080000 -3.210965 -3.340319 -3.503115 -3.279059 -3.874330 -4.066907 -3.789729 -4.634307 -4.877723 -4.575467 -5.768372 -5.952089 -5.784743
42.120000 -3.221327 -3.350190 -3.513183 -3.296959 -3.886152 -4.079831 -3.797330 -4.645873 -4.892123 -4.584667 -5.779663 -5.965219 -5.796165
42.160000 -3.231741 -3.360617 -3.522031 -3.307253 -3.896576 -4.091249 -3.803541 -4.656014 -4.905108 -4.591284 -5.789500 -5.977568 -5.805893
42.200000 -3.242412 -3.370773 -3.534846 -3.321257 -3.908795 -4.104439 -3.811557 -4.667923 -4.919870 -4.599480 -5.801073 -5.992068 -5.812873
42.240000 -3.252789 -3.381507 -3.544726 -3.329414 -3.918192 -4.114782 -3.816761 -4.676978 -4.931788 -4.605364 -5.809757 -6.003677 -5.815886
42.280000 -3.263421 -3.391954 -3.563952 -3.340246 -3.929427 -4.126933 -3.823815 -4.687838 -4.945519 -4.613095 -5.820207 -6.016493 -5.822363
42.320000 -3.274116 -3.402887 -3.573505 -3.348279 -3.939500 -4.137891 -3.829722 -4.697498 -4.958062 -4.619625 -5.829415 -6.024608 -5.829696
42.360000 -3.284873 -3.413995 -3.584953 -3.359518 -3.949320 -4.148562 -3.835476 -4.706866 -4.970321 -4.625860 -5.838284 -6.034863 -5.833710
42.400000 -3.295904 -3.425266 -3.595219 -3.368504 -3.959742 -4.159796 -3.842085 -4.716791 -4.983149 -4.632649 -5.847660 -6.046072 -5.839725
42.440000 -3.306862 -3.436954 -3.606372 -3.379467 -3.968694 -4.169519 -3.847273 -4.725200 -4.994470 -4.637918 -5.855463 -6.055740 -5.844398
42.480000 -3.318103 -3.448597 -3.616844 -3.390874 -3.978890 -4.180439 -3.853636 -4.734801 -5.006991 -4.644372 -5.864397 -6.066886 -5.850338
42.520000 -3.329604 -3.461119 -3.626863 -3.403551 -3.987602 -4.189827 -3.858290 -4.742864 -5.017984 -4.649285 -5.871726 -6.076299 -5.855878
42.560000 -3.341377 -3.473548 -3.637489 -3.418993 -3.997646 -4.200491 -3.864312 -4.752199 -5.030257 -4.655463 -5.880254 -6.086948 -5.866121
42.600000 -3.353479 -3.486812 -3.647114 -3.434234 -4.006629 -4.210035 -3.869313 -4.760409 -5.041413 -4.660510 -5.887578 -6.096869 -5.875294
42.640000 -3.365528 -3.499951 -3.658640 -3.451622 -4.015806 -4.219710 -3.874553 -4.768746 -5.052700 -4.665676 -5.894942 -6.106825 -5.880354
42.680000 -3.377921 -3.513385 -3.669186 -3.467205 -4.025501 -4.229831 -3.881482 -4.777526 -5.064337 -4.671638 -5.902656 -6.117129 -5.884394
42.720000 -3.390455 -3.527571 -3.683264 -3.477057 -4.033725 -4.239481 -3.888916 -4.784756 -5.073479 -4.676730 -5.908718 -6.125777 -5.886751
42.760000 -3.403133 -3.541425 -3.697330 -3.485709 -4.043439 -4.251300 -3.897980 -4.793393 -5.083311 -4.683418 -5.916076 -6.135718 -5.888307
42.800000 -3.416192 -3.556323 -3.706120 -3.490802 -4.051832 -4.261527 -3.905867 -4.800619 -5.091558 -4.688895 -5.921904 -6.143754 -5.887767
42.840000 -3.429329 -3.571118 -3.720340 -3.501780 -4.060868 -4.272212 -3.914543 -4.808393 -5.101039 -4.695124 -5.928151 -6.151888 -5.889423
42.880000 -3.442876 -3.586611 -3.730248 -3.517831 -4.069654 -4.282455 -3.923127 -4.815818 -5.110614 -4.701219 -5.933909 -6.159014 -5.892212
42.920000 -3.456546 -3.602382 -3.747384 -3.537825 -4.078270 -4.292316 -3.931701 -4.822967 -5.118074 -4.707259 -5.939243 -6.167011 -5.894825
42.960000 -3.470337 -3.618243 -3.763078 -3.548436 -4.087199 -4.302269 -3.940751 -4.830317 -5.125489 -4.713728 -5.944617 -6.175092 -5.897477
43.000000 -3.484581 -3.634994 -3.780458 -3.564515 -4.095624 -4.311477 -3.949471 -4.837047 -5.132047 -4.719812 -5.949200 -6.182659 -5.898960
43.040000 -3.498838 -3.651398 -3.800832 -3.582230 -4.105063 -4.321447 -3.959373 -4.844665 -5.139374 -4.727025 -5.954486 -6.190784 -5.900733
43.080000 -3.513579 -3.668980 -3.817803 -3.597472 -4.113480 -4.330127 -3.968923 -4.851136 -5.145828 -4.733336 -5.958431 -6.197509 -5.901102
43.120000 -3.528590 -3.686429 -3.838444 -3.613213 -4.123253 -4.339880 -3.980851 -4.858827 -5.155175 -4.741117 -5.963387 -6.205465 -5.902596
43.160000 -3.543882 -3.704535 -3.854069 -3.628417 -4.132593 -4.348894 -3.992578 -4.865948 -5.164310 -4.748581 -5.967551 -6.212612 -5.903994
43.200000 -3.559732 -3.723461 -3.866362 -3.644638 -4.142083 -4.357748 -4.004686 -4.873077 -5.173286 -4.756310 -5.971488 -6.219512 -5.907245
43.240000 -3.575621 -3.742314 -3.880178 -3.661890 -4.152031 -4.366706 -4.015144 -4.880513 -5.182393 -4.763812 -5.975484 -6.226449 -5.908391
43.280000 -3.592113 -3.762297 -3.892349 -3.678990 -4.161650 -4.374957 -4.024086 -4.887475 -5.190839 -4.770943 -5.978744 -6.232626 -5.908825
43.320000 -3.608957 -3.782403 -3.909622 -3.698898 -4.172302 -4.383888 -4.034134 -4.895304 -5.202241 -4.778194 -5.982596 -6.239225 -5.909876
43.360000 -3.626168 -3.803304 -3.929594 -3.713786 -4.182651 -4.392067 -4.042778 -4.902692 -5.213400 -4.783988 -5.985718 -6.244935 -5.910228
43.400000 -3.644090 -3.824836 -3.950511 -3.729219 -4.194092 -4.400965 -4.052153 -4.910982 -5.225714 -4.790746 -5.989441 -6.251219 -5.911209
43.440000 -3.662152 -3.846687 -3.969566 -3.750192 -4.205535 -4.409415 -4.061462 -4.919158 -5.238424 -4.798161 -5.992735 -6.257048 -5.911793
43.480000 -3.680998 -3.869348 -3.992939 -3.766760 -4.217939 -4.416970 -4.073722 -4.928107 -5.251964 -4.807405 -5.996471 -6.263287 -5.912854
43.520000 -3.700387 -3.892717 -4.018362 -3.782559 -4.230800 -4.424617 -4.090124 -4.937365 -5.265866 -4.817074 -6.000176 -6.269462 -5.913921
43.560000 -3.720354 -3.916958 -4.041582 -3.799619 -4.243943 -4.431104 -4.102737 -4.946778 -5.279966 -4.827016 -6.003683 -6.275400 -5.915005
43.600000 -3.741285 -3.942306 -4.066535 -3.824871 -4.258062 -4.439135 -4.116571 -4.956937 -5.294844 -4.841024 -6.007570 -6.281679 -5.917558
43.640000 -3.762136 -3.967722 -4.083105 -3.846629 -4.272085 -4.445253 -4.130184 -4.966943 -5.309594 -4.857295 -6.010928 -6.287384 -5.919830
43.680000 -3.784039 -3.994500 -4.103073 -3.864235 -4.286936 -4.452729 -4.144986 -4.977512 -5.324924 -4.875256 -6.014464 -6.294616 -5.922541
43.720000 -3.806354 -4.021406 -4.132029 -3.883672 -4.302883 -4.463444 -4.160724 -4.989190 -5.338699 -4.894602 -6.018715 -6.302182 -5.926234
43.760000 -3.829084 -4.049604 -4.158125 -3.900496 -4.318191 -4.475433 -4.175715 -4.999899 -5.351132 -4.913227 -6.021593 -6.307414 -5.928838
43.800000 -3.853070 -4.078425 -4.188784 -3.919380 -4.335928 -4.491086 -4.193656 -5.013207 -5.366043 -4.932286 -6.026660 -6.314755 -5.933920
43.840000 -3.876648 -4.107478 -4.218018 -3.939757 -4.352612 -4.506260 -4.209594 -5.025187 -5.378364 -4.949074 -6.029981 -6.320263 -5.937383
43.880000 -3.901579 -4.138072 -4.253719 -3.967962 -4.370670 -4.522612 -4.227421 -5.038428 -5.391768 -4.965309 -6.034146 -6.326522 -5.941819
43.920000 -3.926997 -4.169358 -4.289112 -3.996064 -4.389174 -4.539954 -4.245555 -5.052272 -5.405597 -4.982271 -6.038485 -6.332852 -5.946705
43.960000 -3.952898 -4.201680 -4.323947 -4.017371 -4.407840 -4.549014 -4.263854 -5.065650 -5.416319 -4.992500 -6.041941 -6.338192 -5.950990
44.000000 -3.980443 -4.235517 -4.357526 -4.045685 -4.428526 -4.559171 -4.276547 -5.081509 -5.429091 -5.004951 -6.047451 -6.345463 -5.957617
44.040000 -4.007274 -4.269528 -4.390906 -4.068256 -4.447837 -4.564196 -4.287578 -5.095350 -5.439549 -5.015028 -6.050517 -6.350165 -5.959893
44.080000 -4.035872 -4.304436 -4.430573 -4.098563 -4.470172 -4.579472 -4.302720 -5.112720 -5.453255 -5.028696 -6.056703 -6.357846 -5.965268
44.120000 -4.064959 -4.341993 -4.465889 -4.123567 -4.490964 -4.600493 -4.312720 -5.127859 -5.464157 -5.039743 -6.060224 -6.362714 -5.969238
44.160000 -4.094500 -4.378769 -4.505924 -4.154322 -4.513800 -4.622112 -4.326797 -5.145846 -5.479263 -5.059530 -6.066212 -6.369559 -5.974365
44.200000 -4.126197 -4.419385 -4.546262 -4.184631 -4.537448 -4.646617 -4.339790 -5.164128 -5.501485 -5.083581 -6.072060 -6.375211 -5.979936
44.240000 -4.156763 -4.458609 -4.584732 -4.223208 -4.560732 -4.670836 -4.361685 -5.181647 -5.522931 -5.106777 -6.076815 -6.379449 -5.987419
44.280000 -4.189644 -4.501324 -4.628350 -4.249096 -4.585413 -4.690741 -4.388545 -5.201376 -5.541572 -5.132444 -6.083328 -6.386470 -6.002186
44.320000 -4.223134 -4.544644 -4.667302 -4.280809 -4.611570 -4.720279 -4.414044 -5.220677 -5.557156 -5.158715 -6.089153 -6.392804 -6.016717
44.360000 -4.257166 -4.589149 -4.711643 -4.319345 -4.637858 -4.744824 -4.441696 -5.241396 -5.574066 -5.182482 -6.096026 -6.400076 -6.032759
44.400000 -4.294093 -4.637594 -4.760844 -4.355910 -4.666937 -4.767067 -4.465425 -5.263524 -5.591649 -5.204659 -6.103933 -6.408044 -6.050260
44.440000 -4.328671 -4.682707 -4.806174 -4.396588 -4.694806 -4.779989 -4.489497 -5.285105 -5.608993 -5.226240 -6.111108 -6.415183 -6.062976
44.480000 -4.366242 -4.734317 -4.855271 -4.440073 -4.723668 -4.796731 -4.513016 -5.306693 -5.626359 -5.247887 -6.117794 -6.421438 -6.075332
44.520000 -4.404067 -4.784551 -4.905172 -4.479587 -4.754413 -4.812173 -4.541849 -5.330912 -5.645485 -5.272018 -6.127111 -6.430923 -6.090493
44.560000 -4.441894 -4.837614 -4.954729 -4.520841 -4.783975 -4.829852 -4.570749 -5.352991 -5.662261 -5.294091 -6.133729 -6.438316 -6.103297
44.600000 -4.483334 -4.893202 -5.007434 -4.560720 -4.818829 -4.859301 -4.602521 -5.378977 -5.682563 -5.319975 -6.144462 -6.447460 -6.114199
44.640000 -4.521648 -4.948064 -5.059670 -4.603082 -4.849414 -4.887104 -4.627103 -5.401801 -5.699718 -5.342396 -6.151316 -6.452135 -6.121499
44.680000 -4.563672 -5.005906 -5.115383 -4.652563 -4.885636 -4.919707 -4.656854 -5.426867 -5.718239 -5.360080 -6.160771 -6.458795 -6.131650
44.720000 -4.605957 -5.065399 -5.179120 -4.706710 -4.921723 -4.945541 -4.695678 -5.452843 -5.743318 -5.378771 -6.170923 -6.466683 -6.142386
44.760000 -4.648128 -5.125989 -5.237375 -4.760051 -4.958095 -4.979558 -4.726293 -5.477877 -5.761313 -5.396411 -6.179455 -6.474004 -6.151906
44.800000 -4.694838 -5.190220 -5.303269 -4.817964 -5.000345 -5.025119 -4.760192 -5.507859 -5.789465 -5.419941 -6.193630 -6.488148 -6.167828
44.840000 -4.736673 -5.253543 -5.360524 -4.873044 -5.036685 -5.061589 -4.792062 -5.531821 -5.803417 -5.440119 -6.200404 -6.491673 -6.177914
44.880000 -4.782972 -5.319812 -5.427631 -4.924473 -5.079155 -5.109157 -4.827637 -5.560862 -5.830730 -5.466586 -6.213466 -6.507331 -6.193534
44.920000 -4.829311 -5.388909 -5.494598 -4.979553 -5.121637 -5.141724 -4.863610 -5.588990 -5.852353 -5.492489 -6.224098 -6.520572 -6.209891
44.960000 -4.875088 -5.456467 -5.565250 -5.038602 -5.165305 -5.183458 -4.904378 -5.616064 -5.875346 -5.519047 -6.235204 -6.531965 -6.220519
45.000000 -4.926264 -5.531436 -5.637713 -5.105181 -5.214382 -5.234574 -4.947394 -5.649137 -5.899184 -5.556103 -6.250423 -6.548117 -6.245350
45.040000 -4.971301 -5.600091 -5.705262 -5.165672 -5.259095 -5.276187 -4.985879 -5.674773 -5.919157 -5.589310 -6.259385 -6.557760 -6.263400
45.080000 -5.021554 -5.675114 -5.779796 -5.233302 -5.309824 -5.322392 -5.029112 -5.705431 -5.945783 -5.629332 -6.273559 -6.578650 -6.282629
45.120000 -5.071724 -5.751155 -5.854883 -5.297216 -5.360686 -5.374062 -5.072343 -5.737767 -5.982535 -5.654516 -6.286720 -6.587804 -6.287156
45.160000 -5.120977 -5.826010 -5.926110 -5.365276 -5.412736 -5.420222 -5.117028 -5.767304 -6.009188 -5.680363 -6.300046 -6.598950 -6.299121
45.200000 -5.176539 -5.909803 -6.006671 -5.440788 -5.470778 -5.475287 -5.170964 -5.805399 -6.042181 -5.712124 -6.317607 -6.616542 -6.328525
45.240000 -5.224818 -5.985717 -6.080116 -5.511071 -5.523551 -5.523453 -5.217591 -5.834863 -6.076149 -5.740654 -6.330052 -6.628537 -6.346501
45.280000 -5.279142 -6.069320 -6.159224 -5.585759 -5.583175 -5.581625 -5.272126 -5.871539 -6.119108 -5.772842 -6.346134 -6.657559 -6.360798
45.320000 -5.333174 -6.152438 -6.239574 -5.661592 -5.643988 -5.643883 -5.327633 -5.907478 -6.159612 -5.803959 -6.364567 -6.670178 -6.374528
45.360000 -5.385772 -6.234744 -6.317956 -5.734773 -5.704514 -5.706565 -5.382945 -5.943327 -6.201705 -5.838877 -6.379671 -6.676535 -6.386858
45.400000 -5.445630 -6.324975 -6.408604 -5.816283 -5.773373 -5.774684 -5.447537 -5.986873 -6.243174 -5.878837 -6.403351 -6.695807 -6.410987
45.440000 -5.496345 -6.406825 -6.491191 -5.889612 -5.835291 -5.833985 -5.503814 -6.020240 -6.276261 -5.915609 -6.418574 -6.706018 -6.419370
