#z log10(Lbol [erg/s])
0.000000 -inf
0.010010 39.845772
0.020020 40.451978
0.030030 40.808233
0.040040 41.062113
0.050050 41.259865
0.060060 41.422091
0.070070 41.559781
0.080080 41.679495
0.090090 41.785466
0.100100 41.880583
0.110110 41.966909
0.120120 42.045965
0.130130 42.118908
0.140140 42.186637
0.150150 42.249866
0.160160 42.309169
0.170170 42.365017
0.180180 42.417800
0.190190 42.467844
0.200200 42.515426
0.210210 42.560783
0.220220 42.604117
0.230230 42.645604
0.240240 42.685400
0.250250 42.723638
0.260260 42.760438
0.270270 42.795907
0.280280 42.830137
0.290290 42.863215
0.300300 42.895215
0.310310 42.926207
0.320320 42.956252
0.330330 42.985408
0.340340 43.013724
0.350350 43.041250
0.360360 43.068026
0.370370 43.094094
0.380380 43.119489
0.390390 43.144246
0.400400 43.168394
0.410410 43.191964
0.420420 43.214982
0.430430 43.237473
0.440440 43.259460
0.450450 43.280964
0.460460 43.302008
0.470470 43.322608
0.480480 43.342783
0.490490 43.362551
0.500501 43.381926
0.510511 43.400924
0.520521 43.419558
0.530531 43.437842
0.540541 43.455789
0.550551 43.473410
0.560561 43.490716
0.570571 43.507718
0.580581 43.524426
0.590591 43.540851
0.600601 43.557000
0.610611 43.572882
0.620621 43.588507
0.630631 43.603881
0.640641 43.619013
0.650651 43.633909
0.660661 43.648577
0.670671 43.663022
0.680681 43.677252
0.690691 43.691273
0.700701 43.705089
0.710711 43.718707
0.720721 43.732132
0.730731 43.745369
0.740741 43.758423
0.750751 43.771298
0.760761 43.784000
0.770771 43.796532
0.780781 43.808899
0.790791 43.821105
0.800801 43.833154
0.810811 43.845049
0.820821 43.856795
0.830831 43.868393
0.840841 43.879849
0.850851 43.891166
0.860861 43.902345
0.870871 43.913391
0.880881 43.924307
0.890891 43.935095
0.900901 43.945757
0.910911 43.956298
0.920921 43.966719
0.930931 43.977022
0.940941 43.987211
0.950951 43.997288
0.960961 44.007254
0.970971 44.017113
0.980981 44.026865
0.990991 44.036514
1.001001 44.046062
1.011011 44.055510
1.021021 44.064860
1.031031 44.074114
1.041041 44.083274
1.051051 44.092342
1.061061 44.101320
1.071071 44.110208
1.081081 44.119009
1.091091 44.127724
1.101101 44.136356
1.111111 44.144904
1.121121 44.153371
1.131131 44.161759
1.141141 44.170068
1.151151 44.178300
1.161161 44.186456
1.171171 44.194538
1.181181 44.202547
1.191191 44.210483
1.201201 44.218349
1.211211 44.226145
1.221221 44.233873
1.231231 44.241533
1.241241 44.249127
1.251251 44.256656
1.261261 44.264120
1.271271 44.271521
1.281281 44.278860
1.291291 44.286138
1.301301 44.293355
1.311311 44.300513
1.321321 44.307613
1.331331 44.314654
1.341341 44.321640
1.351351 44.328569
1.361361 44.335443
1.371371 44.342263
1.381381 44.349029
1.391391 44.355742
1.401401 44.362404
1.411411 44.369014
1.421421 44.375574
1.431431 44.382085
1.441441 44.388546
1.451451 44.394958
1.461461 44.401323
1.471471 44.407641
1.481481 44.413912
1.491491 44.420138
1.501502 44.426318
1.511512 44.432454
1.521522 44.438546
1.531532 44.444595
1.541542 44.450600
1.551552 44.456564
1.561562 44.462485
1.571572 44.468366
1.581582 44.474205
1.591592 44.480005
1.601602 44.485765
1.611612 44.491486
1.621622 44.497169
1.631632 44.502813
1.641642 44.508419
1.651652 44.513989
1.661662 44.519521
1.671672 44.525018
1.681682 44.530478
1.691692 44.535903
1.701702 44.541293
1.711712 44.546649
1.721722 44.551970
1.731732 44.557257
1.741742 44.562512
1.751752 44.567733
1.761762 44.572921
1.771772 44.578078
1.781782 44.583202
1.791792 44.588296
1.801802 44.593358
1.811812 44.598389
1.821822 44.603390
1.831832 44.608360
1.841842 44.613301
1.851852 44.618213
1.861862 44.623096
1.871872 44.627949
1.881882 44.632775
1.891892 44.637572
1.901902 44.642342
1.911912 44.647083
1.921922 44.651798
1.931932 44.656486
1.941942 44.661147
1.951952 44.665782
1.961962 44.670390
1.971972 44.674973
1.981982 44.679530
1.991992 44.684062
2.002002 44.688569
2.012012 44.693052
2.022022 44.697509
2.032032 44.701943
2.042042 44.706352
2.052052 44.710738
2.062062 44.715100
2.072072 44.719439
2.082082 44.723755
2.092092 44.728048
2.102102 44.732318
2.112112 44.736566
2.122122 44.740792
2.132132 44.744996
2.142142 44.749178
2.152152 44.753339
2.162162 44.757478
2.172172 44.761596
2.182182 44.765693
2.192192 44.769770
2.202202 44.773826
2.212212 44.777862
2.222222 44.781878
2.232232 44.785873
2.242242 44.789849
2.252252 44.793806
2.262262 44.797743
2.272272 44.801660
2.282282 44.805559
2.292292 44.809439
2.302302 44.813300
2.312312 44.817143
2.322322 44.820967
2.332332 44.824773
2.342342 44.828561
2.352352 44.832332
2.362362 44.836084
2.372372 44.839819
2.382382 44.843537
2.392392 44.847237
2.402402 44.850920
2.412412 44.854586
2.422422 44.858236
2.432432 44.861869
2.442442 44.865485
2.452452 44.869085
2.462462 44.872669
2.472472 44.876236
2.482482 44.879788
2.492492 44.883324
2.502503 44.886844
2.512513 44.890348
2.522523 44.893838
2.532533 44.897311
2.542543 44.900770
2.552553 44.904214
2.562563 44.907642
2.572573 44.911056
2.582583 44.914455
2.592593 44.917840
2.602603 44.921210
2.612613 44.924566
2.622623 44.927908
2.632633 44.931235
2.642643 44.934549
2.652653 44.937848
2.662663 44.941134
2.672673 44.944406
2.682683 44.947665
2.692693 44.950910
2.702703 44.954142
2.712713 44.957361
2.722723 44.960566
2.732733 44.963759
2.742743 44.966938
2.752753 44.970105
2.762763 44.973259
2.772773 44.976400
2.782783 44.979529
2.792793 44.982645
2.802803 44.985749
2.812813 44.988841
2.822823 44.991920
2.832833 44.994988
2.842843 44.998043
2.852853 45.001087
2.862863 45.004119
2.872873 45.007139
2.882883 45.010147
2.892893 45.013144
2.902903 45.016129
2.912913 45.019103
2.922923 45.022066
2.932933 45.025017
2.942943 45.027957
2.952953 45.030886
2.962963 45.033805
2.972973 45.036712
2.982983 45.039608
2.992993 45.042494
3.003003 45.045369
3.013013 45.048233
3.023023 45.051087
3.033033 45.053931
3.043043 45.056764
3.053053 45.059586
3.063063 45.062399
3.073073 45.065201
3.083083 45.067993
3.093093 45.070775
3.103103 45.073548
3.113113 45.076310
3.123123 45.079062
3.133133 45.081805
3.143143 45.084538
3.153153 45.087261
3.163163 45.089975
3.173173 45.092680
3.183183 45.095374
3.193193 45.098060
3.203203 45.100736
3.213213 45.103403
3.223223 45.106061
3.233233 45.108709
3.243243 45.111349
3.253253 45.113979
3.263263 45.116601
3.273273 45.119214
3.283283 45.121817
3.293293 45.124412
3.303303 45.126999
3.313313 45.129576
3.323323 45.132145
3.333333 45.134706
3.343343 45.137258
3.353353 45.139801
3.363363 45.142336
3.373373 45.144863
3.383383 45.147381
3.393393 45.149892
3.403403 45.152394
3.413413 45.154888
3.423423 45.157373
3.433433 45.159851
3.443443 45.162321
3.453453 45.164783
3.463463 45.167236
3.473473 45.169683
3.483483 45.172121
3.493493 45.174551
3.503504 45.176974
3.513514 45.179389
3.523524 45.181797
3.533534 45.184197
3.543544 45.186589
3.553554 45.188974
3.563564 45.191352
3.573574 45.193722
3.583584 45.196085
3.593594 45.198440
3.603604 45.200789
3.613614 45.203130
3.623624 45.205464
3.633634 45.207790
3.643644 45.210110
3.653654 45.212423
3.663664 45.214728
3.673674 45.217027
3.683684 45.219319
3.693694 45.221604
3.703704 45.223882
3.713714 45.226153
3.723724 45.228417
3.733734 45.230675
3.743744 45.232926
3.753754 45.235170
3.763764 45.237408
3.773774 45.239639
3.783784 45.241864
3.793794 45.244082
3.803804 45.246294
3.813814 45.248499
3.823824 45.250698
3.833834 45.252890
3.843844 45.255076
3.853854 45.257256
3.863864 45.259430
3.873874 45.261597
3.883884 45.263758
3.893894 45.265913
3.903904 45.268062
3.913914 45.270205
3.923924 45.272342
3.933934 45.274473
3.943944 45.276597
3.953954 45.278716
3.963964 45.280829
3.973974 45.282936
3.983984 45.285037
3.993994 45.287132
4.004004 45.289222
4.014014 45.291306
4.024024 45.293383
4.034034 45.295456
4.044044 45.297522
4.054054 45.299583
4.064064 45.301639
4.074074 45.303688
4.084084 45.305733
4.094094 45.307771
4.104104 45.309804
4.114114 45.311832
4.124124 45.313854
4.134134 45.315871
4.144144 45.317882
4.154154 45.319888
4.164164 45.321889
4.174174 45.323884
4.184184 45.325875
4.194194 45.327859
4.204204 45.329839
4.214214 45.331814
4.224224 45.333783
4.234234 45.335747
4.244244 45.337706
4.254254 45.339660
4.264264 45.341609
4.274274 45.343552
4.284284 45.345491
4.294294 45.347425
4.304304 45.349354
4.314314 45.351277
4.324324 45.353196
4.334334 45.355110
4.344344 45.357019
4.354354 45.358924
4.364364 45.360823
4.374374 45.362718
4.384384 45.364608
4.394394 45.366493
4.404404 45.368373
4.414414 45.370249
4.424424 45.372120
4.434434 45.373986
4.444444 45.375848
4.454454 45.377705
4.464464 45.379557
4.474474 45.381405
4.484484 45.383248
4.494494 45.385087
4.504505 45.801816
4.514515 45.803645
4.524525 45.805471
4.534535 45.807291
4.544545 45.809108
4.554555 45.810920
4.564565 45.812727
4.574575 45.814531
4.584585 45.816329
4.594595 45.818124
4.604605 45.819914
4.614615 45.821700
4.624625 45.823482
4.634635 45.825259
4.644645 45.827032
4.654655 45.828801
4.664665 45.830566
4.674675 45.832327
4.684685 45.834083
4.694695 45.835836
4.704705 45.837584
4.714715 45.839328
4.724725 45.841068
4.734735 45.842804
4.744745 45.844536
4.754755 45.846264
4.764765 45.847988
4.774775 45.849708
4.784785 45.851423
4.794795 45.853135
4.804805 45.854844
4.814815 45.856548
4.824825 45.858248
4.834835 45.859944
4.844845 45.861637
4.854855 45.863325
4.864865 45.865010
4.874875 45.866691
4.884885 45.868368
4.894895 45.870042
4.904905 45.871711
4.914915 45.873377
4.924925 45.875039
4.934935 45.876698
4.944945 45.878353
4.954955 45.880004
4.964965 45.881651
4.974975 45.883295
4.984985 45.884935
4.994995 45.886571
5.005005 45.888204
5.015015 45.889833
5.025025 45.891459
5.035035 45.893081
5.045045 45.894700
5.055055 45.896315
5.065065 45.897926
5.075075 45.899534
5.085085 45.901139
5.095095 45.902740
5.105105 45.904337
5.115115 45.905931
5.125125 45.907522
5.135135 45.909109
5.145145 45.910693
5.155155 45.912274
5.165165 45.913851
5.175175 45.915425
5.185185 45.916995
5.195195 45.918562
5.205205 45.920126
5.215215 45.921686
5.225225 45.923244
5.235235 45.924798
5.245245 45.926348
5.255255 45.927896
5.265265 45.929440
5.275275 45.930981
5.285285 45.932518
5.295295 45.934053
5.305305 45.935584
5.315315 45.937112
5.325325 45.938637
5.335335 45.940159
5.345345 45.941678
5.355355 45.943193
5.365365 45.944706
5.375375 45.946215
5.385385 45.947721
5.395395 45.949224
5.405405 45.950725
5.415415 45.952222
5.425425 45.953716
5.435435 45.955207
5.445445 45.956695
5.455455 45.958180
5.465465 45.959662
5.475475 45.961141
5.485485 45.962617
5.495495 45.964090
5.505506 45.965560
5.515516 45.967027
5.525526 45.968491
5.535536 45.969953
5.545546 45.971411
5.555556 45.972867
5.565566 45.974319
5.575576 45.975769
5.585586 45.977216
5.595596 45.978660
5.605606 45.980101
5.615616 45.981540
5.625626 45.982976
5.635636 45.984408
5.645646 45.985838
5.655656 45.987266
5.665666 45.988690
5.675676 45.990112
5.685686 45.991531
5.695696 45.992947
5.705706 45.994361
5.715716 45.995771
5.725726 45.997179
5.735736 45.998585
5.745746 45.999987
5.755756 46.001387
5.765766 46.002785
5.775776 46.004179
5.785786 46.005571
5.795796 46.006961
5.805806 46.008348
5.815816 46.009732
5.825826 46.011113
5.835836 46.012492
5.845846 46.013868
5.855856 46.015242
5.865866 46.016613
5.875876 46.017982
5.885886 46.019348
5.895896 46.020711
5.905906 46.022072
5.915916 46.023431
5.925926 46.024787
5.935936 46.026140
5.945946 46.027491
5.955956 46.028839
5.965966 46.030185
5.975976 46.031528
5.985986 46.032869
5.995996 46.034208
6.006006 45.472070
6.016016 45.473403
6.026026 45.474734
6.036036 45.476063
6.046046 45.477389
6.056056 45.478713
6.066066 45.480035
6.076076 45.481354
6.086086 45.482671
6.096096 45.483985
6.106106 45.485297
6.116116 45.486607
6.126126 45.487914
6.136136 45.489219
6.146146 45.490522
6.156156 45.491822
6.166166 45.493120
6.176176 45.494416
6.186186 45.495709
6.196196 45.497000
6.206206 45.498289
6.216216 45.499576
6.226226 45.500860
6.236236 45.502142
6.246246 45.503422
6.256256 45.504699
6.266266 45.505975
6.276276 45.507248
6.286286 45.508519
6.296296 45.509787
6.306306 45.511054
6.316316 45.512318
6.326326 45.513580
6.336336 45.514840
6.346346 45.516097
6.356356 45.517353
6.366366 45.518606
6.376376 45.519857
6.386386 45.521106
6.396396 45.522353
6.406406 45.523598
6.416416 45.524840
6.426426 45.526081
6.436436 45.527319
6.446446 45.528555
6.456456 45.529790
6.466466 45.531022
6.476476 45.532252
6.486486 45.533480
6.496496 45.534705
6.506507 45.535929
6.516517 45.537151
6.526527 45.538370
6.536537 45.539588
6.546547 45.540804
6.556557 45.542017
6.566567 45.543229
6.576577 45.544438
6.586587 45.545646
6.596597 45.546851
6.606607 45.548054
6.616617 45.549256
6.626627 45.550455
6.636637 45.551653
6.646647 45.552848
6.656657 45.554042
6.666667 45.555234
6.676677 45.556423
6.686687 45.557611
6.696697 45.558797
6.706707 45.559980
6.716717 45.561162
6.726727 45.562342
6.736737 45.563520
6.746747 45.564696
6.756757 45.565871
6.766767 45.567043
6.776777 45.568213
6.786787 45.569382
6.796797 45.570548
6.806807 45.571713
6.816817 45.572876
6.826827 45.574037
6.836837 45.575196
6.846847 45.576354
6.856857 45.577509
6.866867 45.578663
6.876877 45.579814
6.886887 45.580964
6.896897 45.582112
6.906907 45.583259
6.916917 45.584403
6.926927 45.585546
6.936937 45.586687
6.946947 45.587826
6.956957 45.588963
6.966967 45.590099
6.976977 45.591232
6.986987 45.592364
6.996997 45.593494
7.007007 45.594623
7.017017 45.595749
7.027027 45.596874
7.037037 45.597997
7.047047 45.599119
7.057057 45.600238
7.067067 45.601356
7.077077 45.602472
7.087087 45.603587
7.097097 45.604700
7.107107 45.605811
7.117117 45.606920
7.127127 45.608028
7.137137 45.609134
7.147147 45.610238
7.157157 45.611340
7.167167 45.612441
7.177177 45.613540
7.187187 45.614638
7.197197 45.615734
7.207207 45.616828
7.217217 45.617920
7.227227 45.619011
7.237237 45.620100
7.247247 45.621188
7.257257 45.622274
7.267267 45.623358
7.277277 45.624441
7.287287 45.625522
7.297297 45.626601
7.307307 45.627679
7.317317 45.628755
7.327327 45.629830
7.337337 45.630903
7.347347 45.631974
7.357357 45.633044
7.367367 45.634112
7.377377 45.635179
7.387387 45.636244
7.397397 45.637307
7.407407 45.638369
7.417417 45.639430
7.427427 45.640488
7.437437 45.641546
7.447447 45.642601
7.457457 45.643655
7.467467 45.644708
7.477477 45.645759
7.487487 45.646809
7.497497 45.647856
7.507508 45.648903
7.517518 45.649948
7.527528 45.650991
7.537538 45.652033
7.547548 45.653074
7.557558 45.654112
7.567568 45.655150
7.577578 45.656186
7.587588 45.657220
7.597598 45.658253
7.607608 45.659284
7.617618 45.660314
7.627628 45.661343
7.637638 45.662370
7.647648 45.663395
7.657658 45.664419
7.667668 45.665442
7.677678 45.666463
7.687688 45.667483
7.697698 45.668501
7.707708 45.669518
7.717718 45.670533
7.727728 45.671547
7.737738 45.672560
7.747748 45.673571
7.757758 45.674581
7.767768 45.675589
7.777778 45.676596
7.787788 45.677601
7.797798 45.678605
7.807808 45.679608
7.817818 45.680609
7.827828 45.681609
7.837838 45.682607
7.847848 45.683604
7.857858 45.684600
7.867868 45.685594
7.877878 45.686587
7.887888 45.687579
7.897898 45.688569
7.907908 45.689557
7.917918 45.690545
7.927928 45.691531
7.937938 45.692516
7.947948 45.693499
7.957958 45.694481
7.967968 45.695462
7.977978 45.696441
7.987988 45.697419
7.997998 45.698395
8.008008 45.649495
8.018018 45.650469
8.028028 45.651442
8.038038 45.652413
8.048048 45.653383
8.058058 45.654352
8.068068 45.655319
8.078078 45.656285
8.088088 45.657250
8.098098 45.658214
8.108108 45.659176
8.118118 45.660137
8.128128 45.661096
8.138138 45.662055
8.148148 45.663012
8.158158 45.663967
8.168168 45.664922
8.178178 45.665875
8.188188 45.666827
8.198198 45.667778
8.208208 45.668727
8.218218 45.669675
8.228228 45.670622
8.238238 45.671568
8.248248 45.672512
8.258258 45.673455
8.268268 45.674397
8.278278 45.675338
8.288288 45.676277
8.298298 45.677216
8.308308 45.678153
8.318318 45.679088
8.328328 45.680023
8.338338 45.680956
8.348348 45.681888
8.358358 45.682819
8.368368 45.683749
8.378378 45.684677
8.388388 45.685604
8.398398 45.686530
8.408408 45.687455
8.418418 45.688379
8.428428 45.689301
8.438438 45.690223
8.448448 45.691143
8.458458 45.692061
8.468468 45.692979
8.478478 45.693896
8.488488 45.694811
8.498498 45.695725
8.508509 45.696638
8.518519 45.697550
8.528529 45.698461
8.538539 45.699370
8.548549 45.700278
8.558559 45.701186
8.568569 45.702092
8.578579 45.702997
8.588589 45.703900
8.598599 45.704803
8.608609 45.705704
8.618619 45.706605
8.628629 45.707504
8.638639 45.708402
8.648649 45.709299
8.658659 45.710194
8.668669 45.711089
8.678679 45.711983
8.688689 45.712875
8.698699 45.713766
8.708709 45.714657
8.718719 45.715546
8.728729 45.716434
8.738739 45.717320
8.748749 45.718206
8.758759 45.719091
8.768769 45.719974
8.778779 45.720857
8.788789 45.721738
8.798799 45.722618
8.808809 45.723498
8.818819 45.724376
8.828829 45.725253
8.838839 45.726129
8.848849 45.727004
8.858859 45.727877
8.868869 45.728750
8.878879 45.729622
8.888889 45.730492
8.898899 45.731362
8.908909 45.732230
8.918919 45.733098
8.928929 45.733964
8.938939 45.734829
8.948949 45.735693
8.958959 45.736557
8.968969 45.737419
8.978979 45.738280
8.988989 45.739140
8.998999 45.739999
9.009009 45.740857
9.019019 45.741714
9.029029 45.742570
9.039039 45.743425
9.049049 45.744278
9.059059 45.745131
9.069069 45.745983
9.079079 45.746834
9.089089 45.747683
9.099099 45.748532
9.109109 45.749380
9.119119 45.750227
9.129129 45.751072
9.139139 45.751917
9.149149 45.752761
9.159159 45.753603
9.169169 45.754445
9.179179 45.755286
9.189189 45.756126
9.199199 45.756964
9.209209 45.757802
9.219219 45.758639
9.229229 45.759474
9.239239 45.760309
9.249249 45.761143
9.259259 45.761976
9.269269 45.762808
9.279279 45.763639
9.289289 45.764468
9.299299 45.765297
9.309309 45.766125
9.319319 45.766952
9.329329 45.767778
9.339339 45.768603
9.349349 45.769427
9.359359 45.770251
9.369369 45.771073
9.379379 45.771894
9.389389 45.772714
9.399399 45.773534
9.409409 45.774352
9.419419 45.775169
9.429429 45.775986
9.439439 45.776801
9.449449 45.777616
9.459459 45.778430
9.469469 45.779243
9.479479 45.780054
9.489489 45.780865
9.499499 45.781675
9.509510 45.782484
9.519520 45.783292
9.529530 45.784100
9.539540 45.784906
9.549550 45.785711
9.559560 45.786516
9.569570 45.787319
9.579580 45.788122
9.589590 45.788924
9.599600 45.789724
9.609610 45.790524
9.619620 45.791323
9.629630 45.792121
9.639640 45.792919
9.649650 45.793715
9.659660 45.794510
9.669670 45.795305
9.679680 45.796098
9.689690 45.796891
9.699700 45.797683
9.709710 45.798474
9.719720 45.799264
9.729730 45.800053
9.739740 45.800841
9.749750 45.801629
9.759760 45.802415
9.769770 45.803201
9.779780 45.803986
9.789790 45.804770
9.799800 45.805553
9.809810 45.806335
9.819820 45.807117
9.829830 45.807897
9.839840 45.808677
9.849850 45.809455
9.859860 45.810233
9.869870 45.811010
9.879880 45.811787
9.889890 45.812562
9.899900 45.813336
9.909910 45.814110
9.919920 45.814883
9.929930 45.815655
9.939940 45.816426
9.949950 45.817196
9.959960 45.817966
9.969970 45.818734
9.979980 45.819502
9.989990 45.820269
10.000000 45.821035
