#Quasar bolometric luminosity function in different stellar mass bins from TRINITY PaperIII (Fig. 4, Zhang+2024, MNRAS, 529, 2777)
#z: 8.00
#log10(Lbol [erg/s])(0) log10(QLF_total [Mpc^-3 dex^-1])(1) log10(QLF(8<logMstar<9) [Mpc^-3 dex^-1])(2) log10(QLF(8<logMstar<9)_16th [Mpc^-3 dex^-1])(3) log10(QLF(8<logMstar<9)_84th [Mpc^-3 dex^-1])(4)
#log10(QLF(9<logMstar<10) [Mpc^-3 dex^-1])(5) log10(QLF(9<logMstar<10)_16th [Mpc^-3 dex^-1])(6) log10(QLF(9<logMstar<10)_84th [Mpc^-3 dex^-1])(7)
#log10(QLF(10<logMstar<11) [Mpc^-3 dex^-1])(8) log10(QLF(10<logMstar<11)_16th [Mpc^-3 dex^-1])(9) log10(QLF(10<logMstar<11)_84th [Mpc^-3 dex^-1])(10)
#log10(QLF(11<logMstar<12) [Mpc^-3 dex^-1])(11) log10(QLF(11<logMstar<12)_16th [Mpc^-3 dex^-1])(12) log10(QLF(11<logMstar<12)_84th [Mpc^-3 dex^-1])(13)
40.000000 -8.582155 -11.512800 -12.627016 -10.396278 -8.923291 -9.885238 -8.751253 -8.847690 -9.717054 -8.764766 -12.035643 -13.158461 -11.616919
40.040000 -8.565330 -11.400782 -12.244828 -10.313465 -8.904569 -9.862814 -8.731699 -8.832738 -9.695882 -8.749973 -11.959962 -13.085162 -11.586695
40.080000 -8.549132 -10.989012 -12.169435 -10.214445 -8.888839 -9.838568 -8.713618 -8.817942 -9.675180 -8.735953 -11.881342 -12.959186 -11.545531
40.120000 -8.532935 -10.794978 -12.054908 -10.143468 -8.871629 -9.817334 -8.696169 -8.804157 -9.655231 -8.722337 -11.798435 -12.885563 -11.482240
40.160000 -8.516760 -10.614135 -11.926473 -10.093283 -8.855560 -9.793830 -8.678532 -8.789977 -9.634875 -8.708515 -11.747189 -12.821783 -11.420884
40.200000 -8.501166 -10.507101 -11.789398 -10.035477 -8.839569 -9.772752 -8.661850 -8.776325 -9.615119 -8.695086 -11.672271 -12.746385 -11.381413
40.240000 -8.484885 -10.402171 -11.627240 -9.993255 -8.822887 -9.750123 -8.644461 -8.762260 -9.594757 -8.681304 -11.629045 -12.690150 -11.319222
40.280000 -8.469192 -10.318749 -11.502164 -9.940507 -8.807389 -9.728396 -8.627535 -8.748153 -9.574608 -8.667616 -11.562791 -12.657727 -11.272413
40.320000 -8.453324 -10.249139 -11.451919 -9.897878 -8.790771 -9.706727 -8.610760 -8.734520 -9.554625 -8.654560 -11.523897 -12.597780 -11.227240
40.360000 -8.437319 -10.171967 -11.403819 -9.848814 -8.775383 -9.684118 -8.593504 -8.720053 -9.534080 -8.641137 -11.466986 -12.549864 -11.193374
40.400000 -8.421884 -10.119215 -11.353373 -9.785564 -8.759357 -9.663368 -8.576894 -8.706570 -9.514306 -8.628366 -11.424230 -12.519564 -11.168261
40.440000 -8.405188 -10.040691 -11.322728 -9.725589 -8.743450 -9.640155 -8.559428 -8.691798 -9.493438 -8.614818 -11.383612 -12.452966 -11.142023
40.480000 -8.389111 -9.979338 -11.275050 -9.670416 -8.727405 -9.619436 -8.542404 -8.677893 -9.473283 -8.601870 -11.339889 -12.395547 -11.119535
40.520000 -8.372421 -9.905311 -11.248579 -9.620734 -8.711519 -9.596756 -8.525485 -8.663579 -9.452798 -8.588789 -11.311592 -12.343015 -11.095060
40.560000 -8.355209 -9.837097 -11.196614 -9.572242 -8.695177 -9.574986 -8.507498 -8.648746 -9.431791 -8.572664 -11.273299 -12.311464 -11.073730
40.600000 -8.338654 -9.764832 -11.163825 -9.524359 -8.679710 -9.553711 -8.491198 -8.635096 -9.411985 -8.554845 -11.248510 -12.266513 -11.049426
40.640000 -8.319350 -9.687616 -11.124848 -9.450339 -8.662240 -9.529865 -8.471759 -8.618784 -9.389592 -8.537503 -11.214463 -12.236463 -11.024724
40.680000 -8.300869 -9.610452 -11.055129 -9.352111 -8.645529 -9.508013 -8.454633 -8.604098 -9.368753 -8.521860 -11.190317 -12.197186 -11.002252
40.720000 -8.280322 -9.525383 -10.977997 -9.246350 -8.627995 -9.483504 -8.435788 -8.587720 -9.346311 -8.505202 -11.160953 -12.165573 -10.979952
40.760000 -8.258025 -9.441130 -10.880612 -9.118024 -8.608747 -9.459192 -8.415958 -8.570381 -9.325075 -8.488040 -11.134137 -12.135306 -10.952309
40.800000 -8.236817 -9.347801 -10.790767 -9.008379 -8.592391 -9.435884 -8.396717 -8.555367 -9.306813 -8.473207 -11.111732 -12.109049 -10.926365
40.840000 -8.206196 -9.243635 -10.683602 -8.903947 -8.567579 -9.405556 -8.361178 -8.532443 -9.280595 -8.450448 -11.080431 -12.076643 -10.889153
40.880000 -8.177592 -9.135649 -10.588022 -8.806302 -8.547054 -9.378432 -8.326056 -8.513483 -9.258388 -8.431709 -11.057660 -12.040647 -10.860430
40.920000 -8.139188 -9.017057 -10.501099 -8.657288 -8.518747 -9.343658 -8.283991 -8.487006 -9.228639 -8.405391 -11.025342 -12.007795 -10.828071
40.960000 -8.093507 -8.883843 -10.422198 -8.571308 -8.487181 -9.306123 -8.241409 -8.457286 -9.195667 -8.375906 -10.992640 -11.968823 -10.790841
41.000000 -8.052177 -8.749361 -10.341274 -8.479903 -8.465456 -9.276962 -8.219574 -8.437443 -9.172577 -8.356229 -10.968826 -11.943545 -10.769856
41.040000 -7.962671 -8.563915 -10.223097 -8.283638 -8.402580 -9.211262 -8.157606 -8.376945 -9.108819 -8.295958 -10.905961 -11.876013 -10.705531
41.080000 -7.888497 -8.394879 -10.118324 -8.046370 -8.364339 -9.171779 -8.119656 -8.340699 -9.069334 -8.259899 -10.867005 -11.834443 -10.669431
41.120000 -7.759246 -8.173378 -9.964124 -7.762562 -8.282858 -9.090997 -8.039392 -8.262031 -8.987396 -8.181441 -10.786328 -11.750985 -10.589914
41.160000 -7.613666 -7.933442 -9.797818 -7.495425 -8.207886 -9.014914 -7.965101 -8.189157 -8.911302 -8.108779 -10.711932 -11.673180 -10.517862
41.200000 -7.504826 -7.738992 -9.687062 -7.327104 -8.194426 -9.002338 -7.953247 -8.178947 -8.897823 -8.098781 -10.700202 -11.659543 -10.508652
41.240000 -7.349680 -7.512835 -9.550841 -7.120827 -8.162190 -8.966476 -7.921648 -8.149077 -8.864727 -8.069140 -10.669547 -11.625555 -10.480132
41.280000 -7.235605 -7.345713 -9.478864 -7.115543 -8.191938 -8.995383 -7.941232 -8.182423 -8.894812 -8.102696 -10.701918 -11.655925 -10.515638
41.320000 -7.192105 -7.261764 -9.525571 -7.238422 -8.326170 -9.129894 -8.079257 -8.319795 -9.028950 -8.240293 -10.838705 -11.789287 -10.654921
41.360000 -7.200155 -7.280005 -9.370394 -7.236959 -8.278021 -9.082178 -8.007004 -8.275320 -8.981137 -8.196032 -10.793618 -11.740493 -10.613167
41.400000 -7.208357 -7.289240 -9.261732 -7.225592 -8.278986 -9.084594 -8.005208 -8.280581 -8.982855 -8.201855 -10.798460 -11.741478 -10.617439
41.440000 -7.222119 -7.303608 -9.156358 -7.235108 -8.287975 -9.093856 -8.006156 -8.293230 -8.991973 -8.215354 -10.810698 -11.749924 -10.627076
41.480000 -7.236330 -7.335558 -8.971050 -7.191101 -8.222544 -9.030739 -7.935401 -8.233180 -8.928383 -8.156161 -10.750348 -11.685736 -10.564050
41.520000 -7.248489 -7.332424 -8.980147 -7.271213 -8.298124 -9.099874 -8.006143 -8.312603 -9.004286 -8.236430 -10.829537 -11.761055 -10.640489
41.560000 -7.258404 -7.375319 -8.800695 -7.164332 -8.176943 -8.968966 -7.884320 -8.197585 -8.885735 -8.122263 -10.714332 -11.642009 -10.522522
41.600000 -7.268551 -7.359432 -8.845735 -7.268993 -8.281757 -9.058894 -7.985202 -8.306977 -8.991608 -8.232492 -10.823601 -11.746825 -10.628948
41.640000 -7.275188 -7.401175 -8.661058 -7.164453 -8.160115 -8.935091 -7.862786 -8.192041 -8.873148 -8.118399 -10.708549 -11.627244 -10.511076
41.680000 -7.281928 -7.394827 -8.652433 -7.227775 -8.205265 -8.965720 -7.904901 -8.243398 -8.920984 -8.169528 -10.759823 -11.673966 -10.559771
41.720000 -7.286930 -7.418851 -8.486251 -7.182079 -8.148551 -8.892673 -7.846270 -8.193296 -8.867363 -8.116277 -10.709653 -11.619257 -10.511306
41.760000 -7.290133 -7.430753 -8.397515 -7.207853 -8.124281 -8.852750 -7.820356 -8.177200 -8.847752 -8.098371 -10.693507 -11.598557 -10.496839
41.800000 -7.293360 -7.431871 -8.286088 -7.223974 -8.130009 -8.847103 -7.822455 -8.189466 -8.856505 -8.110079 -10.705729 -11.606217 -10.510762
41.840000 -7.301842 -7.476648 -8.110396 -7.167889 -8.049890 -8.754794 -7.742213 -8.119241 -8.782763 -8.039254 -10.635475 -11.531388 -10.442215
41.880000 -7.310493 -7.456399 -8.124577 -7.245810 -8.120077 -8.811557 -7.807803 -8.196808 -8.856815 -8.116245 -10.713017 -11.604363 -10.521456
41.920000 -7.321017 -7.522576 -7.908871 -7.163273 -8.011421 -8.696141 -7.680862 -8.098789 -8.755289 -8.017550 -10.614986 -11.501761 -10.425140
41.960000 -7.333548 -7.496996 -8.057633 -7.275904 -8.093097 -8.782130 -7.748947 -8.189734 -8.842733 -8.107847 -10.705928 -11.588312 -10.517784
42.000000 -7.346451 -7.561213 -7.983532 -7.215728 -8.006410 -8.700920 -7.646667 -8.113934 -8.763429 -8.031272 -10.630131 -11.508183 -10.443713
42.040000 -7.351954 -7.553713 -8.107963 -7.261674 -8.027925 -8.729072 -7.665643 -8.147216 -8.793213 -8.064567 -10.663425 -11.537153 -10.478566
42.080000 -7.357527 -7.581277 -8.028596 -7.255406 -7.994046 -8.700076 -7.623991 -8.124103 -8.766606 -8.041900 -10.640324 -11.509735 -10.456444
42.120000 -7.361207 -7.604496 -8.006538 -7.241796 -7.964194 -8.679197 -7.595179 -8.108622 -8.747671 -8.026885 -10.624894 -11.489983 -10.441991
42.160000 -7.362945 -7.597111 -8.002222 -7.300163 -7.973752 -8.693502 -7.598195 -8.129337 -8.764923 -8.047930 -10.645657 -11.506410 -10.463736
42.200000 -7.364689 -7.652361 -7.974634 -7.199853 -7.903567 -8.633847 -7.518913 -8.075456 -8.707639 -7.994467 -10.591888 -11.448309 -10.410949
42.240000 -7.360826 -7.606947 -8.076226 -7.269745 -7.943401 -8.679875 -7.529950 -8.128789 -8.757594 -8.041854 -10.645354 -11.497454 -10.465395
42.280000 -7.356997 -7.669655 -8.084750 -7.199417 -7.858970 -8.602717 -7.444133 -8.060742 -8.686253 -7.956344 -10.577523 -11.425300 -10.398545
42.320000 -7.350262 -7.625595 -8.215233 -7.239059 -7.884464 -8.633671 -7.465886 -8.103008 -8.725346 -7.981897 -10.620129 -11.463571 -10.441057
42.360000 -7.340754 -7.665251 -8.190229 -7.216153 -7.819406 -8.572551 -7.384212 -8.053958 -8.673155 -7.923340 -10.571452 -11.410561 -10.391001
42.400000 -7.331450 -7.652921 -8.312739 -7.203804 -7.805829 -8.564048 -7.385419 -8.059665 -8.676001 -7.927323 -10.577812 -11.412596 -10.395985
42.440000 -7.314469 -7.648579 -8.275700 -7.243882 -7.771779 -8.534303 -7.342410 -8.042137 -8.655575 -7.908583 -10.560900 -11.391359 -10.377695
42.480000 -7.298128 -7.660976 -8.312292 -7.179667 -7.724737 -8.478458 -7.304902 -8.016385 -8.627526 -7.881645 -10.536367 -11.362497 -10.351783
42.520000 -7.279720 -7.630701 -8.249708 -7.254293 -7.709698 -8.445201 -7.284213 -8.019119 -8.627807 -7.881943 -10.540167 -11.361960 -10.352535
42.560000 -7.259523 -7.663196 -8.209166 -7.200170 -7.644213 -8.364802 -7.224994 -7.975595 -8.582475 -7.828974 -10.498647 -11.316113 -10.305183
42.600000 -7.240223 -7.615192 -8.192669 -7.260203 -7.638323 -8.343765 -7.218502 -7.990074 -8.591346 -7.837392 -10.515390 -11.328531 -10.316090
42.640000 -7.219341 -7.649471 -8.153550 -7.234147 -7.575078 -8.266161 -7.157925 -7.947037 -8.536958 -7.785950 -10.475212 -11.284026 -10.270074
42.680000 -7.199416 -7.620605 -8.113481 -7.215871 -7.554035 -8.229264 -7.139075 -7.948096 -8.526008 -7.779613 -10.480317 -11.284795 -10.269339
42.720000 -7.178811 -7.634289 -8.200983 -7.173074 -7.508450 -8.154435 -7.095447 -7.921171 -8.484195 -7.733050 -10.457149 -11.256360 -10.240339
42.760000 -7.157657 -7.636966 -8.234946 -7.188018 -7.468974 -8.118189 -7.062104 -7.903521 -8.454188 -7.696686 -10.445330 -11.238134 -10.222685
42.800000 -7.137487 -7.623702 -8.345338 -7.197989 -7.440365 -8.091274 -7.034282 -7.893953 -8.427916 -7.676710 -10.440811 -11.227199 -10.212325
42.840000 -7.116962 -7.649795 -8.397882 -7.223976 -7.393864 -8.047907 -6.994980 -7.867184 -8.388139 -7.634965 -10.422081 -11.202045 -10.187756
42.880000 -7.097364 -7.635368 -8.487481 -7.203919 -7.367571 -8.022459 -6.970408 -7.859273 -8.373168 -7.609169 -10.421148 -11.196877 -10.180989
42.920000 -7.075416 -7.670732 -8.526602 -7.241276 -7.320347 -7.976029 -6.928483 -7.828253 -8.342842 -7.576633 -10.400087 -11.171891 -10.154093
42.960000 -7.051499 -7.658415 -8.615457 -7.258604 -7.288696 -7.946467 -6.900365 -7.813050 -8.332256 -7.569822 -10.395727 -11.162678 -10.143889
43.000000 -7.028831 -7.689928 -8.620082 -7.240649 -7.247081 -7.898397 -6.871228 -7.782498 -8.306456 -7.537313 -10.376219 -11.137755 -10.120100
43.040000 -7.001766 -7.703466 -8.572271 -7.278607 -7.206333 -7.859754 -6.832366 -7.755118 -8.286196 -7.502453 -10.363032 -11.119136 -10.103904
43.080000 -6.976289 -7.712858 -8.533229 -7.238963 -7.170864 -7.815981 -6.791412 -7.727647 -8.264743 -7.462063 -10.347407 -11.098836 -10.086352
43.120000 -6.950439 -7.758937 -8.599538 -7.249952 -7.128041 -7.774695 -6.743708 -7.695616 -8.251597 -7.420724 -10.330804 -11.080106 -10.069761
43.160000 -6.924361 -7.749532 -8.598938 -7.268542 -7.097286 -7.739161 -6.732770 -7.672746 -8.245537 -7.388560 -10.321304 -11.068475 -10.060276
43.200000 -6.899761 -7.811412 -8.642750 -7.239562 -7.057906 -7.694696 -6.705873 -7.639083 -8.224803 -7.345227 -10.304108 -11.049145 -10.043095
43.240000 -6.873937 -7.824399 -8.768911 -7.260493 -7.025833 -7.649275 -6.680988 -7.612259 -8.200171 -7.311997 -10.292521 -11.035428 -10.031519
43.280000 -6.849562 -7.883778 -8.952097 -7.248167 -6.991887 -7.600928 -6.642474 -7.578575 -8.167833 -7.269043 -10.275341 -11.014836 -10.014351
43.320000 -6.824873 -7.925814 -9.027180 -7.232739 -6.960394 -7.531691 -6.621843 -7.549722 -8.136789 -7.238879 -10.264661 -10.999811 -10.003685
43.360000 -6.799992 -7.972886 -9.253072 -7.219665 -6.931119 -7.502196 -6.576212 -7.514223 -8.096698 -7.198005 -10.245336 -10.976245 -9.984374
43.400000 -6.776459 -8.055665 -9.307059 -7.233760 -6.900668 -7.443929 -6.559022 -7.484614 -8.070121 -7.169061 -10.234548 -10.961448 -9.973597
43.440000 -6.751833 -8.079217 -9.562363 -7.217868 -6.875455 -7.412460 -6.520101 -7.450101 -8.028893 -7.127299 -10.216224 -10.939109 -9.955285
43.480000 -6.728528 -8.195354 -9.661112 -7.225838 -6.846150 -7.362072 -6.502116 -7.421481 -8.001349 -7.099486 -10.205021 -10.923849 -9.944092
43.520000 -6.706044 -8.207185 -9.905462 -7.223989 -6.824155 -7.340026 -6.482080 -7.391650 -7.968027 -7.073568 -10.191890 -10.906660 -9.930972
43.560000 -6.684317 -8.329325 -10.114014 -7.227212 -6.799391 -7.310814 -6.476526 -7.362506 -7.938593 -7.048127 -10.179327 -10.889944 -9.918414
43.600000 -6.663626 -8.388868 -10.297255 -7.224172 -6.778681 -7.274553 -6.468200 -7.334030 -7.904909 -7.025080 -10.167932 -10.874396 -9.907023
43.640000 -6.642307 -8.492749 -10.564355 -7.233469 -6.757728 -7.256475 -6.454129 -7.301939 -7.867701 -6.997092 -10.151545 -10.853724 -9.890792
43.680000 -6.621986 -8.600327 -10.726898 -7.233599 -6.737118 -7.217241 -6.445128 -7.275517 -7.836907 -6.978396 -10.142753 -10.840628 -9.882197
43.720000 -6.601016 -8.680193 -10.987310 -7.240993 -6.719529 -7.192667 -6.433659 -7.238938 -7.793615 -6.947323 -10.121699 -10.815023 -9.861336
43.760000 -6.579529 -8.840200 -11.206580 -7.248723 -6.697769 -7.166389 -6.435057 -7.212989 -7.763235 -6.929854 -10.112305 -10.800202 -9.852085
43.800000 -6.559056 -8.886678 -11.417816 -7.250442 -6.682417 -7.145551 -6.413546 -7.174751 -7.718198 -6.899936 -10.089682 -10.772043 -9.829558
43.840000 -6.537541 -9.082390 -11.633720 -7.230861 -6.660861 -7.140536 -6.412417 -7.150044 -7.690804 -6.883736 -10.079942 -10.756235 -9.816882
43.880000 -6.517042 -9.117069 -11.876116 -7.208206 -6.645409 -7.111130 -6.391232 -7.113751 -7.648951 -6.858786 -10.059092 -10.729373 -9.788626
43.920000 -6.497257 -9.305763 -12.079778 -7.204008 -6.627670 -7.090428 -6.372918 -7.086384 -7.617974 -6.841753 -10.045835 -10.711704 -9.768710
43.960000 -6.478135 -9.411351 -12.296242 -7.238443 -6.612871 -7.080971 -6.353789 -7.054425 -7.580816 -6.823843 -10.028834 -10.691114 -9.742688
44.000000 -6.459820 -9.566481 -12.532643 -7.219731 -6.599579 -7.068474 -6.349362 -7.021916 -7.543765 -6.802951 -10.009738 -10.668407 -9.714222
44.040000 -6.444414 -9.741016 -12.735050 -7.252248 -6.587402 -7.071708 -6.350241 -6.997646 -7.516701 -6.778911 -9.999851 -10.654922 -9.693792
44.080000 -6.429535 -9.860987 -13.007844 -7.242189 -6.580656 -7.037882 -6.371575 -6.962332 -7.477037 -6.744270 -9.977604 -10.625831 -9.658580
44.120000 -6.416279 -10.108243 -13.204998 -7.283404 -6.570000 -7.028435 -6.368801 -6.942630 -7.454387 -6.726609 -9.970926 -10.607212 -9.640335
44.160000 -6.404515 -10.183992 -13.530243 -7.311846 -6.568650 -7.005999 -6.346635 -6.907209 -7.404837 -6.692478 -9.948040 -10.570084 -9.608221
44.200000 -6.393060 -10.470353 -13.777446 -7.376617 -6.559913 -7.009912 -6.352412 -6.889769 -7.370963 -6.677753 -9.942122 -10.548459 -9.605818
44.240000 -6.383860 -10.539251 -14.118350 -7.404043 -6.561608 -6.992880 -6.326473 -6.858152 -7.324387 -6.650071 -9.921927 -10.513568 -9.590332
44.280000 -6.374851 -10.803119 -14.468955 -7.431793 -6.558246 -7.011056 -6.309053 -6.838135 -7.289729 -6.634294 -9.912097 -10.484819 -9.585035
44.320000 -6.367507 -10.967305 -14.755736 -7.501178 -6.560558 -7.042664 -6.292707 -6.812963 -7.253016 -6.615844 -9.896795 -10.457872 -9.574414
44.360000 -6.361747 -11.184047 -15.221292 -7.612729 -6.565198 -7.035164 -6.280757 -6.789202 -7.222992 -6.587495 -9.881675 -10.431698 -9.563769
44.400000 -6.356063 -11.430641 -15.518275 -7.698158 -6.567513 -7.022139 -6.310251 -6.770437 -7.190524 -6.564681 -9.870795 -10.408755 -9.540116
44.440000 -6.353093 -11.596981 -15.958872 -7.797726 -6.579838 -7.002640 -6.291179 -6.744135 -7.148138 -6.544077 -9.851281 -10.385807 -9.505574
44.480000 -6.350144 -11.935292 -16.432965 -7.903446 -6.583889 -6.991270 -6.268701 -6.731168 -7.119990 -6.556444 -9.843386 -10.379074 -9.474034
44.520000 -6.348836 -12.041509 -16.749965 -8.014530 -6.602174 -6.990315 -6.243362 -6.703782 -7.076416 -6.529715 -9.820035 -10.356354 -9.427889
44.560000 -6.349156 -12.419425 -17.378867 -8.154089 -6.610073 -7.027946 -6.256928 -6.694716 -7.056821 -6.538400 -9.812995 -10.340097 -9.396787
44.600000 -6.349476 -12.523036 -17.644404 -8.281110 -6.632051 -7.065916 -6.229967 -6.670111 -7.018632 -6.510392 -9.788269 -10.305866 -9.349316
44.640000 -6.352132 -12.859274 -18.151840 -8.429137 -6.646923 -7.131214 -6.228444 -6.659824 -6.989028 -6.499048 -9.776741 -10.288571 -9.318491
44.680000 -6.354805 -13.083308 -18.502703 -8.570151 -6.669192 -7.182110 -6.254467 -6.643213 -6.959478 -6.488391 -9.755214 -10.263718 -9.276999
44.720000 -6.358883 -13.357166 -18.929629 -8.749127 -6.693474 -7.257894 -6.274087 -6.629100 -6.936192 -6.480513 -9.735746 -10.240411 -9.245692
44.760000 -6.364406 -13.677773 -19.365946 -8.890378 -6.715922 -7.338537 -6.261138 -6.620561 -6.928309 -6.472537 -9.716494 -10.221104 -9.219876
44.800000 -6.370001 -13.886104 -19.762764 -9.075454 -6.749601 -7.384075 -6.260026 -6.604877 -6.913963 -6.457558 -9.690498 -10.190911 -9.182795
44.840000 -6.378998 -14.317495 -20.250121 -9.237517 -6.773430 -7.452285 -6.290261 -6.603573 -6.905727 -6.453666 -9.671501 -10.171798 -9.155226
44.880000 -6.388186 -14.453993 -20.644757 -9.432793 -6.818284 -7.490624 -6.317584 -6.590235 -6.887435 -6.438860 -9.639749 -10.138871 -9.115928
44.920000 -6.399445 -14.919895 -21.058047 -9.656045 -6.845179 -7.602632 -6.345570 -6.592532 -6.882718 -6.439515 -9.619800 -10.114786 -9.087143
44.960000 -6.412937 -15.065759 -21.578716 -9.826983 -6.898713 -7.666353 -6.333591 -6.585200 -6.861785 -6.429560 -9.584080 -10.080807 -9.049241
45.000000 -6.426860 -15.469720 -22.009535 -10.033151 -6.935007 -7.752089 -6.353943 -6.588694 -6.859624 -6.433857 -9.561552 -10.049304 -9.016530
45.040000 -6.443790 -15.761343 -22.447982 -10.222205 -6.987636 -7.837970 -6.372812 -6.590509 -6.863771 -6.437045 -9.527680 -10.016058 -8.983247
45.080000 -6.461407 -16.095128 -22.965439 -10.458178 -7.040574 -7.925190 -6.393399 -6.594793 -6.891461 -6.438381 -9.500053 -9.977923 -8.945981
45.120000 -6.480644 -16.491763 -23.372991 -10.651650 -7.090368 -8.038755 -6.432873 -6.603652 -6.908681 -6.451275 -9.466987 -9.941703 -8.913426
45.160000 -6.501691 -16.749753 -23.952767 -10.878654 -7.158781 -8.111848 -6.459504 -6.610383 -6.911328 -6.465436 -9.435248 -9.902142 -8.876068
45.200000 -6.523810 -17.274139 -24.294263 -11.103160 -7.206726 -8.256867 -6.502398 -6.625552 -6.950758 -6.485911 -9.403110 -9.866783 -8.844288
45.240000 -6.548380 -17.448136 -24.829007 -11.343153 -7.291118 -8.329979 -6.545895 -6.635812 -6.982084 -6.503386 -9.365625 -9.827241 -8.801416
45.280000 -6.574423 -18.002171 -25.215450 -11.603747 -7.343471 -8.487083 -6.597867 -6.656350 -7.021245 -6.535239 -9.338235 -9.790485 -8.769172
45.320000 -6.601564 -18.196714 -25.598525 -11.865971 -7.437951 -8.573872 -6.658839 -6.671006 -7.008880 -6.541304 -9.296948 -9.752497 -8.727415
