#Quasar bolometric luminosity function in BH mass bins from TRINITY PaperIV (arXiv:2309.07210)
#z: 10.00
#Mbh range: 5.0 < log(Mbh [Msun]) < 6.0
#log10(Lbol [erg/s]) log10(QLF_best [Mpc^-3 dex^-1] log10(QLF_16th [Mpc^-3 dex^-1] log10(QLF_84th [Mpc^-3 dex^-1])
40.000000 -12.384281 -13.046493 -10.527911
40.040000 -12.366574 -12.971552 -10.494566
40.080000 -12.349561 -12.913604 -10.463663
40.120000 -12.332351 -12.869541 -10.432718
40.160000 -12.314992 -12.838669 -10.401880
40.200000 -12.298301 -12.808401 -10.373326
40.240000 -12.280595 -12.732296 -10.347431
40.280000 -12.263582 -12.688534 -10.323014
40.320000 -12.246373 -12.643530 -10.298649
40.360000 -12.229017 -12.598031 -10.274399
40.400000 -12.212327 -12.557654 -10.251445
40.440000 -12.194619 -12.501847 -10.226841
40.480000 -12.177605 -12.460685 -10.203570
40.520000 -12.159168 -12.416236 -10.180279
40.560000 -12.139511 -12.369806 -10.157033
40.600000 -12.120705 -12.327939 -10.135099
40.640000 -12.094188 -12.285878 -10.113936
40.680000 -12.069198 -12.246790 -10.093777
40.720000 -12.042512 -12.214745 -10.075405
40.760000 -12.014506 -12.192438 -10.058628
40.800000 -11.988198 -12.178390 -10.042478
40.840000 -11.958932 -12.163707 -10.030663
40.880000 -11.931515 -12.147824 -10.019163
40.920000 -11.903990 -12.119958 -10.008267
40.960000 -11.876475 -12.098078 -9.997940
41.000000 -11.850600 -12.082364 -9.987856
41.040000 -11.823399 -12.064692 -9.977481
41.080000 -11.797803 -12.047745 -9.967353
41.120000 -11.772062 -12.030762 -9.957189
41.160000 -11.746285 -12.010282 -9.946998
41.200000 -11.721952 -11.988583 -9.937044
41.240000 -11.695590 -11.970963 -9.926778
41.280000 -11.670737 -11.956520 -9.916753
41.320000 -11.643906 -11.941942 -9.906680
41.360000 -11.615524 -11.927256 -9.896567
41.400000 -11.588884 -11.913051 -9.886685
41.440000 -11.555625 -11.898021 -9.872983
41.480000 -11.524733 -11.883495 -9.859700
41.520000 -11.493319 -11.866437 -9.844363
41.560000 -11.461630 -11.847152 -9.818454
41.600000 -11.432098 -11.828687 -9.787176
41.640000 -11.399784 -11.791983 -9.745553
41.680000 -11.369709 -11.747672 -9.707707
41.720000 -11.337839 -11.708106 -9.680799
41.760000 -11.304682 -11.671651 -9.652676
41.800000 -11.273879 -11.638021 -9.626349
41.840000 -11.236024 -11.606815 -9.594833
41.880000 -11.201207 -11.577627 -9.553666
41.920000 -11.163633 -11.538911 -9.511282
41.960000 -11.124178 -11.493343 -9.468520
42.000000 -11.088011 -11.443692 -9.429662
42.040000 -11.042634 -11.383041 -9.383892
42.080000 -11.001553 -11.340795 -9.344544
42.120000 -10.957980 -11.296965 -9.313026
42.160000 -10.912939 -11.251793 -9.269904
42.200000 -10.872133 -11.210890 -9.240810
42.240000 -10.823239 -11.160251 -9.209611
42.280000 -10.779297 -11.113403 -9.180611
42.320000 -10.735621 -11.066209 -9.150955
42.360000 -10.692522 -11.019235 -9.121735
42.400000 -10.653317 -10.976849 -9.096298
42.440000 -10.614918 -10.935176 -9.069395
42.480000 -10.579641 -10.897157 -9.044071
42.520000 -10.544339 -10.861016 -9.020697
42.560000 -10.509224 -10.825220 -8.999040
42.600000 -10.476737 -10.791271 -8.978413
42.640000 -10.440221 -10.753818 -8.950336
42.680000 -10.406539 -10.719345 -8.920251
42.720000 -10.371981 -10.684063 -8.889473
42.760000 -10.336927 -10.648355 -8.858289
42.800000 -10.304493 -10.615369 -8.829875
42.840000 -10.268017 -10.578285 -8.807553
42.880000 -10.234368 -10.548437 -8.786379
42.920000 -10.199874 -10.523295 -8.760618
42.960000 -10.164906 -10.498301 -8.728016
43.000000 -10.132545 -10.474677 -8.697691
43.040000 -10.096064 -10.449622 -8.663853
43.080000 -10.062412 -10.425947 -8.632462
43.120000 -10.027777 -10.398626 -8.600336
43.160000 -9.992563 -10.369979 -8.567779
43.200000 -9.959991 -10.343118 -8.539085
43.240000 -9.920536 -10.312562 -8.506910
43.280000 -9.884369 -10.283875 -8.476555
43.320000 -9.843972 -10.251574 -8.442305
43.360000 -9.800674 -10.217292 -8.405506
43.400000 -9.761304 -10.185519 -8.370940
43.440000 -9.706324 -10.154406 -8.326842
43.480000 -9.657529 -10.102683 -8.286822
43.520000 -9.598607 -10.059011 -8.248762
43.560000 -9.533793 -10.008958 -8.209985
43.600000 -9.477407 -9.959344 -8.171458
43.640000 -9.387941 -9.864391 -8.130513
43.680000 -9.313794 -9.811918 -8.093099
43.720000 -9.218520 -9.737063 -8.050010
43.760000 -9.115425 -9.668001 -8.002653
43.800000 -9.032169 -9.599368 -7.941551
43.840000 -8.906352 -9.475244 -7.902294
43.880000 -8.808916 -9.375906 -7.840101
43.920000 -8.722291 -9.249846 -7.803018
43.960000 -8.644188 -9.114180 -7.802287
44.000000 -8.578013 -9.010409 -7.795840
44.040000 -8.523293 -8.897478 -7.789071
44.080000 -8.474703 -8.848315 -7.789604
44.120000 -8.442892 -8.796877 -7.800133
44.160000 -8.424658 -8.772828 -7.819664
44.200000 -8.407159 -8.741052 -7.821900
44.240000 -8.398533 -8.731174 -7.820101
44.280000 -8.390075 -8.720061 -7.821369
44.320000 -8.383357 -8.723954 -7.840372
44.360000 -8.378300 -8.723563 -7.882228
44.400000 -8.373301 -8.720404 -7.900470
44.440000 -8.379113 -8.726410 -7.929755
44.480000 -8.385004 -8.735373 -7.979817
44.520000 -8.402047 -8.751586 -8.031557
44.560000 -8.431625 -8.767999 -8.086008
44.600000 -8.463367 -8.796606 -8.156525
44.640000 -8.511784 -8.847524 -8.204049
44.680000 -8.566284 -8.935953 -8.263659
44.720000 -8.628081 -9.078091 -8.326513
44.760000 -8.699518 -9.182391 -8.390048
44.800000 -8.785065 -9.441249 -8.477999
44.840000 -8.918741 -9.577699 -8.585945
44.880000 -9.112853 -9.844052 -8.708446
44.920000 -9.343742 -10.277613 -8.843726
44.960000 -9.599007 -10.545712 -9.003160
45.000000 -10.297909 -11.181384 -9.274762
45.040000 -10.486306 -11.402683 -9.436368
45.080000 -10.826495 -11.877063 -9.745633
45.120000 -11.315200 -13.815434 -10.114954
45.160000 -11.615923 -14.111077 -10.382484
