#Quasar bolometric luminosity function in BH mass bins from TRINITY PaperIV (arXiv:2309.07210)
#z: 10.00
#Mbh range: 8.0 < log(Mbh [Msun]) < 9.0
#log10(Lbol [erg/s]) log10(QLF_best [Mpc^-3 dex^-1] log10(QLF_16th [Mpc^-3 dex^-1] log10(QLF_84th [Mpc^-3 dex^-1])
40.000000 -12.319567 -14.346760 -11.762957
40.040000 -12.269949 -13.531278 -11.688346
40.080000 -12.225422 -13.442561 -11.655578
40.120000 -12.184927 -13.327784 -11.574689
40.160000 -12.147784 -13.259918 -11.527726
40.200000 -12.113569 -13.184682 -11.491441
40.240000 -12.080552 -13.070909 -11.458575
40.280000 -12.049868 -12.968406 -11.423669
40.320000 -12.021137 -12.888081 -11.363596
40.360000 -11.994120 -12.835746 -11.339008
40.400000 -11.968686 -12.798511 -11.299732
40.440000 -11.944124 -12.740053 -11.279430
40.480000 -11.920877 -12.687237 -11.260035
40.520000 -11.898374 -12.632934 -11.241371
40.560000 -11.876563 -12.585307 -11.223382
40.600000 -11.855795 -12.555954 -11.205893
40.640000 -11.835574 -12.530346 -11.172932
40.680000 -11.816253 -12.509130 -11.145663
40.720000 -11.797872 -12.485858 -11.129164
40.760000 -11.780352 -12.446010 -11.114759
40.800000 -11.763511 -12.419626 -11.100816
40.840000 -11.745815 -12.398511 -11.085777
40.880000 -11.728812 -12.378531 -11.069515
40.920000 -11.711603 -12.359032 -11.053507
40.960000 -11.694236 -12.339991 -11.038305
41.000000 -11.677537 -12.321750 -11.023620
41.040000 -11.659835 -12.303714 -11.010069
41.080000 -11.642826 -12.286397 -10.997561
41.120000 -11.625619 -12.268894 -10.985123
41.160000 -11.608260 -12.251253 -10.972759
41.200000 -11.591568 -12.234302 -10.960737
41.240000 -11.573860 -12.216296 -10.947127
41.280000 -11.556845 -12.198918 -10.935470
41.320000 -11.539639 -12.181052 -10.921279
41.360000 -11.522287 -12.163029 -10.909113
41.400000 -11.505603 -12.144582 -10.897288
41.440000 -11.487889 -12.124229 -10.884960
41.480000 -11.470869 -12.104789 -10.872916
41.520000 -11.453591 -12.087429 -10.860227
41.560000 -11.436111 -12.071714 -10.847452
41.600000 -11.419307 -12.056550 -10.832536
41.640000 -11.401363 -12.040564 -10.814745
41.680000 -11.384132 -12.023747 -10.797660
41.720000 -11.366747 -12.006484 -10.780376
41.760000 -11.349253 -11.988822 -10.764394
41.800000 -11.332437 -11.971850 -10.750638
41.840000 -11.314656 -11.953832 -10.736642
41.880000 -11.297575 -11.936531 -10.723084
41.920000 -11.280313 -11.919035 -10.709443
41.960000 -11.262915 -11.901392 -10.696456
42.000000 -11.246188 -11.884439 -10.683849
42.040000 -11.228467 -11.866427 -10.672039
42.080000 -11.211441 -11.849133 -10.661651
42.120000 -11.194221 -11.831642 -10.651194
42.160000 -11.176853 -11.813787 -10.640680
42.200000 -11.160154 -11.796618 -10.626435
42.240000 -11.142440 -11.779311 -10.611396
42.280000 -11.125421 -11.762310 -10.596863
42.320000 -11.108212 -11.745120 -10.582190
42.360000 -11.090861 -11.727787 -10.567406
42.400000 -11.074176 -11.711120 -10.553111
42.440000 -11.056458 -11.693424 -10.538071
42.480000 -11.039434 -11.676424 -10.523535
42.520000 -11.022229 -11.659231 -10.508934
42.560000 -11.004888 -11.641895 -10.495141
42.600000 -10.988212 -11.625226 -10.482022
42.640000 -10.970488 -11.610096 -10.469957
42.680000 -10.953458 -11.599867 -10.459095
42.720000 -10.936249 -11.589246 -10.444844
42.760000 -10.918906 -11.574019 -10.430202
42.800000 -10.902230 -11.558251 -10.416038
42.840000 -10.884509 -11.541560 -10.401175
42.880000 -10.867483 -11.525132 -10.387630
42.920000 -10.850272 -11.507513 -10.373960
42.960000 -10.832923 -11.489733 -10.360191
43.000000 -10.816241 -11.472653 -10.346845
43.040000 -10.798529 -11.454514 -10.332858
43.080000 -10.781511 -11.437105 -10.319309
43.120000 -10.764301 -11.419170 -10.305638
43.160000 -10.746946 -11.400833 -10.291870
43.200000 -10.730257 -11.383240 -10.278525
43.240000 -10.712552 -11.364513 -10.264538
43.280000 -10.695541 -11.346563 -10.250987
43.320000 -10.678331 -11.328394 -10.237319
43.360000 -10.660972 -11.310064 -10.223555
43.400000 -10.644279 -11.292477 -10.210215
43.440000 -10.626572 -11.273324 -10.196226
43.480000 -10.609558 -11.254432 -10.182674
43.520000 -10.592350 -11.235299 -10.169005
43.560000 -10.574995 -11.215992 -10.155241
43.600000 -10.558307 -11.197505 -10.141900
43.640000 -10.540595 -11.177749 -10.127913
43.680000 -10.523578 -11.158852 -10.114362
43.720000 -10.506371 -11.139717 -10.100705
43.760000 -10.489021 -11.120408 -10.087929
43.800000 -10.472339 -11.102356 -10.075525
43.840000 -10.454623 -11.084319 -10.062558
43.880000 -10.437602 -11.067001 -10.049972
43.920000 -10.420394 -11.049486 -10.037281
43.960000 -10.403045 -11.031821 -10.025109
44.000000 -10.386362 -11.014847 -10.015864
44.040000 -10.368649 -10.996811 -10.006303
44.080000 -10.351630 -10.979493 -9.996955
44.120000 -10.334419 -10.961977 -9.987550
44.160000 -10.317063 -10.944313 -9.978096
44.200000 -10.300374 -10.927338 -9.968850
44.240000 -10.282670 -10.909302 -9.959289
44.280000 -10.265660 -10.891985 -9.949941
44.320000 -10.240666 -10.869045 -9.939948
44.360000 -10.209019 -10.841391 -9.927783
44.400000 -10.179523 -10.819328 -9.904117
44.440000 -10.118944 -10.786623 -9.856447
44.480000 -10.065790 -10.758570 -9.805761
44.520000 -10.014402 -10.716812 -9.758115
44.560000 -9.964858 -10.674105 -9.713782
44.600000 -9.920391 -10.639288 -9.678481
44.640000 -9.872607 -10.588031 -9.624192
44.680000 -9.829562 -10.542189 -9.584919
44.720000 -9.786318 -10.497262 -9.548805
44.760000 -9.743296 -10.453421 -9.513444
44.800000 -9.704154 -10.413605 -9.480746
44.840000 -9.661894 -10.370277 -9.446048
44.880000 -9.623385 -10.331833 -9.416008
44.920000 -9.584742 -10.293576 -9.384676
44.960000 -9.546266 -10.266257 -9.351857
45.000000 -9.510924 -10.242183 -9.321425
45.040000 -9.472007 -10.203155 -9.291033
45.080000 -9.436292 -10.165996 -9.263457
45.120000 -9.400030 -10.128141 -9.236069
45.160000 -9.363563 -10.090016 -9.210038
45.200000 -9.329923 -10.054308 -9.185484
45.240000 -9.292448 -10.013247 -9.159628
45.280000 -9.257952 -9.980184 -9.135231
45.320000 -9.222792 -9.957124 -9.102357
45.360000 -9.187314 -9.934107 -9.066681
45.400000 -9.154517 -9.912322 -9.041652
45.440000 -9.118083 -9.883643 -9.015654
45.480000 -9.084470 -9.850689 -8.983377
45.520000 -9.049999 -9.821197 -8.950510
45.560000 -9.015044 -9.788856 -8.918153
45.600000 -8.982694 -9.754038 -8.888852
45.640000 -8.946457 -9.713929 -8.857619
45.680000 -8.913012 -9.678443 -8.828529
45.720000 -8.878996 -9.643617 -8.801085
45.760000 -8.844715 -9.608289 -8.781236
45.800000 -8.812943 -9.575625 -8.762584
45.840000 -8.779222 -9.539897 -8.743383
45.880000 -8.747931 -9.514326 -8.724997
45.920000 -8.719244 -9.488325 -8.704571
45.960000 -8.692807 -9.468272 -8.675646
46.000000 -8.667887 -9.446892 -8.654303
46.040000 -8.654415 -9.417923 -8.634913
46.080000 -8.641349 -9.401507 -8.616381
46.120000 -8.637073 -9.384247 -8.602463
46.160000 -8.641331 -9.361888 -8.594602
46.200000 -8.645630 -9.358104 -8.587675
46.240000 -8.664655 -9.364459 -8.594978
46.280000 -8.684551 -9.365117 -8.608447
46.320000 -8.708961 -9.374193 -8.625757
46.360000 -8.738635 -9.383749 -8.620014
46.400000 -8.770487 -9.409622 -8.637627
46.440000 -8.804018 -9.447572 -8.667824
46.480000 -8.840357 -9.487409 -8.700544
46.520000 -8.877182 -9.527575 -8.733592
46.560000 -8.914331 -9.571243 -8.767497
46.600000 -8.954957 -9.622221 -8.807580
46.640000 -8.997374 -9.670340 -8.845912
46.680000 -9.044386 -9.724885 -8.899818
46.720000 -9.096642 -9.784917 -8.964763
46.760000 -9.155520 -9.832463 -9.029235
46.800000 -9.223650 -9.904219 -9.103405
46.840000 -9.289542 -9.956031 -9.160522
46.880000 -9.367251 -10.025136 -9.224701
46.920000 -9.450935 -10.094765 -9.293243
46.960000 -9.541078 -10.164845 -9.358464
47.000000 -9.654967 -10.248110 -9.461694
47.040000 -9.758518 -10.318755 -9.544304
47.080000 -9.894754 -10.408010 -9.659381
47.120000 -10.040741 -10.528643 -9.776708
47.160000 -10.185461 -10.652354 -9.881735
47.200000 -10.404042 -10.824111 -10.027471
47.240000 -10.546107 -10.945965 -10.156466
47.280000 -10.758619 -11.115954 -10.324072
47.320000 -10.994551 -11.296037 -10.488140
47.360000 -11.185994 -11.468546 -10.645298
47.400000 -11.536633 -11.856201 -10.894252
47.440000 -11.698198 -12.043785 -11.037539
47.480000 -11.958352 -12.293317 -11.319232
47.520000 -12.260881 -12.722735 -11.583535
47.560000 -12.459793 -12.953317 -11.803452
