#Quasar bolometric luminosity function from TRINITY PaperIV (arXiv:2309.07210)
#z: 10.00
#log10(Lbol [erg/s]) log10(QLF [Mpc^-3 dex^-1])
43.000000 -8.801043
43.040000 -8.788889
43.080000 -8.777067
43.120000 -8.763272
43.160000 -8.747699
43.200000 -8.732665
43.240000 -8.714370
43.280000 -8.696816
43.320000 -8.679948
43.360000 -8.663716
43.400000 -8.648069
43.440000 -8.628451
43.480000 -8.609681
43.520000 -8.586710
43.560000 -8.560212
43.600000 -8.535238
43.640000 -8.507980
43.680000 -8.482331
43.720000 -8.457581
43.760000 -8.433662
43.800000 -8.410992
43.840000 -8.393359
43.880000 -8.376415
43.920000 -8.359131
43.960000 -8.341572
44.000000 -8.324695
44.040000 -8.305610
44.080000 -8.287329
44.120000 -8.268879
44.160000 -8.250309
44.200000 -8.232502
44.240000 -8.214083
44.280000 -8.196414
44.320000 -8.178484
44.360000 -8.160350
44.400000 -8.142944
44.440000 -8.126514
44.480000 -8.110683
44.520000 -8.096396
44.560000 -8.083523
44.600000 -8.071021
44.640000 -8.060756
44.680000 -8.050727
44.720000 -8.040999
44.760000 -8.031558
44.800000 -8.022318
44.840000 -8.013575
44.880000 -8.005005
44.920000 -7.997836
44.960000 -7.992001
45.000000 -7.986244
45.040000 -7.982737
45.080000 -7.979257
45.120000 -7.977195
45.160000 -7.976530
45.200000 -7.975866
45.240000 -7.978173
45.280000 -7.980493
45.320000 -7.984791
45.360000 -7.991127
45.400000 -7.997556
45.440000 -8.007248
45.480000 -8.017161
45.520000 -8.029550
45.560000 -8.044625
45.600000 -8.060242
45.640000 -8.078871
45.680000 -8.098335
45.720000 -8.119199
45.760000 -8.141631
45.800000 -8.165284
45.840000 -8.190634
45.880000 -8.217556
45.920000 -8.244992
45.960000 -8.272928
46.000000 -8.302785
46.040000 -8.332536
46.080000 -8.364475
46.120000 -8.397384
46.160000 -8.431297
46.200000 -8.468085
46.240000 -8.503534
46.280000 -8.542135
46.320000 -8.581242
46.360000 -8.620647
46.400000 -8.663988
46.440000 -8.704309
46.480000 -8.748762
46.520000 -8.793246
46.560000 -8.837228
46.600000 -8.886172
46.640000 -8.928782
46.680000 -8.976031
46.720000 -9.022732
46.760000 -9.068041
46.800000 -9.118633
46.840000 -9.161463
46.880000 -9.208985
46.920000 -9.255849
46.960000 -9.301164
47.000000 -9.351764
47.040000 -9.395324
47.080000 -9.443745
47.120000 -9.491680
47.160000 -9.538252
47.200000 -9.590423
47.240000 -9.635293
47.280000 -9.685339
47.320000 -9.734920
47.360000 -9.783081
47.400000 -9.837256
47.440000 -9.883730
47.480000 -9.935779
47.520000 -9.987301
47.560000 -10.037203
47.600000 -10.093593
47.640000 -10.141325
47.680000 -10.194958
47.720000 -10.248114
47.760000 -10.299626
47.800000 -10.358082
47.840000 -10.407523
47.880000 -10.463325
47.920000 -10.518700
47.960000 -10.572359
48.000000 -10.633594
48.040000 -10.685369
48.080000 -10.744163
48.120000 -10.802595
48.160000 -10.859191
48.200000 -10.924284
48.240000 -10.978968
48.280000 -11.041544
48.320000 -11.103934
48.360000 -11.164440
48.400000 -11.234763
48.440000 -11.293410
48.480000 -11.361232
48.520000 -11.429013
48.560000 -11.494643
48.600000 -11.571988
48.640000 -11.636329
48.680000 -11.711889
48.720000 -11.788587
48.760000 -11.864086
48.800000 -11.955532
48.840000 -12.032963
48.880000 -12.127261
48.920000 -12.226634
48.960000 -12.328656
49.000000 -12.462251
49.040000 -12.572930
49.080000 -12.721833
49.120000 -12.881944
49.160000 -13.037046
49.200000 -13.280583
49.240000 -13.433309
49.280000 -13.670953
49.320000 -13.946015
49.360000 -14.164687
49.400000 -14.626266
49.440000 -14.818278
49.480000 -15.170905
49.520000 -15.687342
49.560000 -15.951441
49.600000 -16.739140
