#Quasar bolometric luminosity function in BH Eddington ratio bins from TRINITY PaperIV (arXiv:2309.07210)
#z: 10.00
#Eddington ratio range: -2.0 < log(eta) < -1.0
#log10(Lbol [erg/s]) log10(QLF_best [Mpc^-3 dex^-1] log10(QLF_16th [Mpc^-3 dex^-1] log10(QLF_84th [Mpc^-3 dex^-1])
40.000000 -14.945276 -16.510382 -11.456638
40.040000 -14.796501 -16.298623 -11.408753
40.080000 -14.688022 -16.157612 -11.372847
40.120000 -14.560485 -15.990478 -11.337710
40.160000 -14.442251 -15.824496 -11.305388
40.200000 -14.342939 -15.703416 -11.277066
40.240000 -14.214168 -15.510630 -11.243323
40.280000 -14.110049 -15.376590 -11.214102
40.320000 -14.003568 -15.227303 -11.184401
40.360000 -13.896212 -15.082969 -11.152390
40.400000 -13.809546 -14.973744 -11.097984
40.440000 -13.704608 -14.820035 -11.034268
40.480000 -13.614143 -14.701130 -10.974919
40.520000 -13.523732 -14.567847 -10.915802
40.560000 -13.429437 -14.436529 -10.855238
40.600000 -13.353582 -14.335700 -10.803049
40.640000 -13.256448 -14.181109 -10.741852
40.680000 -13.177409 -14.066906 -10.691671
40.720000 -13.091432 -13.967748 -10.640354
40.760000 -13.004331 -13.875443 -10.591661
40.800000 -12.932991 -13.781119 -10.556335
40.840000 -12.839971 -13.645032 -10.504973
40.880000 -12.765330 -13.542147 -10.458705
40.920000 -12.684768 -13.419508 -10.411260
40.960000 -12.606139 -13.296638 -10.365206
41.000000 -12.537965 -13.196013 -10.322880
41.040000 -12.456443 -13.060598 -10.274942
41.080000 -12.387356 -12.984204 -10.232199
41.120000 -12.316190 -12.908919 -10.187277
41.160000 -12.246974 -12.834224 -10.142643
41.200000 -12.184873 -12.769181 -10.101255
41.240000 -12.114502 -12.694583 -10.054233
41.280000 -12.052332 -12.631587 -10.011591
41.320000 -11.990918 -12.560572 -9.967986
41.360000 -11.929620 -12.488832 -9.924653
41.400000 -11.875750 -12.382698 -9.889730
41.440000 -11.813471 -12.271360 -9.849879
41.480000 -11.758444 -12.214098 -9.813747
41.520000 -11.703666 -12.155574 -9.780514
41.560000 -11.647845 -12.096559 -9.763799
41.600000 -11.599219 -12.043708 -9.749602
41.640000 -11.541888 -11.981281 -9.732773
41.680000 -11.491748 -11.927856 -9.700032
41.720000 -11.440144 -11.870748 -9.658128
41.760000 -11.388755 -11.811473 -9.616730
41.800000 -11.342766 -11.751978 -9.582220
41.840000 -11.289284 -11.671403 -9.542779
41.880000 -11.242419 -11.630662 -9.508714
41.920000 -11.193236 -11.586536 -9.474918
41.960000 -11.144899 -11.541222 -9.441422
42.000000 -11.100771 -11.476455 -9.413295
42.040000 -11.049561 -11.401745 -9.377239
42.080000 -11.003580 -11.340999 -9.341184
42.120000 -10.956397 -11.297160 -9.316513
42.160000 -10.908760 -11.249601 -9.292045
42.200000 -10.865928 -11.200922 -9.269391
42.240000 -10.816746 -11.146390 -9.241205
42.280000 -10.772117 -11.091996 -9.220864
42.320000 -10.726884 -11.038386 -9.201659
42.360000 -10.680708 -10.988383 -9.184671
42.400000 -10.639786 -10.944720 -9.176816
42.440000 -10.591843 -10.894145 -9.164222
42.480000 -10.549426 -10.851638 -9.148100
42.520000 -10.505659 -10.812163 -9.132100
42.560000 -10.461555 -10.767944 -9.110675
42.600000 -10.422522 -10.721771 -9.094097
42.640000 -10.376858 -10.659650 -9.069507
42.680000 -10.336870 -10.617454 -9.051429
42.720000 -10.295783 -10.573892 -9.038214
42.760000 -10.255066 -10.530876 -9.017698
42.800000 -10.218634 -10.491514 -8.995021
42.840000 -10.176385 -10.446348 -8.973340
42.880000 -10.138949 -10.411585 -8.958187
42.920000 -10.099869 -10.382025 -8.948981
42.960000 -10.060051 -10.352687 -8.942737
43.000000 -10.024662 -10.312842 -8.922534
43.040000 -9.983130 -10.266508 -8.919612
43.080000 -9.946581 -10.222962 -8.922754
43.120000 -9.909314 -10.187313 -8.916205
43.160000 -9.871721 -10.156936 -8.880668
43.200000 -9.839005 -10.131528 -8.858541
43.240000 -9.800202 -10.097181 -8.861438
43.280000 -9.766713 -10.059975 -8.871786
43.320000 -9.732313 -10.022035 -8.883947
43.360000 -9.697895 -9.984497 -8.896298
43.400000 -9.668087 -9.959774 -8.902771
43.440000 -9.632732 -9.933863 -8.900741
43.480000 -9.602440 -9.909657 -8.901038
43.520000 -9.571615 -9.883100 -8.902870
43.560000 -9.541048 -9.856269 -8.905380
43.600000 -9.514955 -9.817749 -8.903729
43.640000 -9.484986 -9.808723 -8.899836
43.680000 -9.459609 -9.798835 -8.898632
43.720000 -9.434311 -9.793287 -8.897454
43.760000 -9.409067 -9.797713 -8.910977
43.800000 -9.388576 -9.798150 -8.910097
43.840000 -9.362571 -9.792530 -8.895505
43.880000 -9.341580 -9.789007 -8.902792
43.920000 -9.320639 -9.790670 -8.897988
43.960000 -9.300239 -9.769927 -8.882327
44.000000 -9.284507 -9.764324 -8.881043
44.040000 -9.265018 -9.755981 -8.882571
44.080000 -9.250626 -9.751356 -8.886851
44.120000 -9.236511 -9.717814 -8.898626
44.160000 -9.223470 -9.698986 -8.907497
44.200000 -9.214852 -9.713423 -8.916009
44.240000 -9.203484 -9.728868 -8.926603
44.280000 -9.196478 -9.731746 -8.935249
44.320000 -9.190995 -9.748067 -8.942139
44.360000 -9.185377 -9.764981 -8.953106
44.400000 -9.185388 -9.789022 -8.958847
44.440000 -9.181989 -9.806709 -8.980594
44.480000 -9.183920 -9.830014 -9.000801
44.520000 -9.186693 -9.850814 -9.013772
44.560000 -9.190486 -9.868240 -9.013436
44.600000 -9.199916 -9.872551 -9.039142
44.640000 -9.204872 -9.865107 -9.061790
44.680000 -9.217657 -9.876508 -9.041550
44.720000 -9.226899 -9.879740 -9.049760
44.760000 -9.240825 -9.897189 -9.070234
44.800000 -9.256433 -9.925733 -9.091137
44.840000 -9.271362 -9.954594 -9.105746
44.880000 -9.290464 -9.977777 -9.129547
44.920000 -9.309376 -10.021382 -9.153852
44.960000 -9.332362 -10.068056 -9.182371
45.000000 -9.354945 -10.089039 -9.194777
45.040000 -9.381883 -10.101503 -9.219902
45.080000 -9.404264 -10.128401 -9.238658
45.120000 -9.434484 -10.169198 -9.262130
45.160000 -9.460591 -10.202633 -9.283987
45.200000 -9.493710 -10.243471 -9.308254
45.240000 -9.523617 -10.278897 -9.330851
45.280000 -9.555618 -10.309035 -9.354753
45.320000 -9.592995 -10.343070 -9.381599
45.360000 -9.623323 -10.375018 -9.413526
45.400000 -9.668256 -10.413530 -9.452928
45.440000 -9.696273 -10.434828 -9.483029
45.480000 -9.738663 -10.487171 -9.524711
45.520000 -9.773901 -10.531529 -9.562603
45.560000 -9.813337 -10.580603 -9.605108
45.600000 -9.855777 -10.628128 -9.651970
45.640000 -9.891913 -10.667242 -9.695104
45.680000 -9.938137 -10.713893 -9.749546
45.720000 -9.974136 -10.751497 -9.778878
45.760000 -10.023788 -10.805174 -9.815746
45.800000 -10.059891 -10.853312 -9.850188
45.840000 -10.105172 -10.913887 -9.901620
45.880000 -10.145634 -10.967600 -9.948108
45.920000 -10.190062 -11.018227 -9.998640
45.960000 -10.234394 -11.068005 -10.049569
46.000000 -10.278364 -11.117085 -10.099356
46.040000 -10.326433 -11.171584 -10.149619
46.080000 -10.366787 -11.215957 -10.189344
46.120000 -10.421920 -11.278516 -10.241667
46.160000 -10.458759 -11.318825 -10.278826
46.200000 -10.512756 -11.379644 -10.330421
46.240000 -10.554438 -11.425653 -10.372148
46.280000 -10.604286 -11.481183 -10.421131
46.320000 -10.653863 -11.541741 -10.470538
46.360000 -10.699609 -11.594915 -10.520933
46.400000 -10.757017 -11.663051 -10.581742
46.440000 -10.798614 -11.711302 -10.626121
46.480000 -10.860407 -11.785361 -10.686017
46.520000 -10.901369 -11.831700 -10.729821
46.560000 -10.958128 -11.904512 -10.787169
46.600000 -11.008056 -11.969355 -10.838258
46.640000 -11.059719 -12.036534 -10.906215
46.680000 -11.114943 -12.115398 -10.987833
46.720000 -11.165268 -12.186039 -11.054140
46.760000 -11.225397 -12.270939 -11.114908
46.800000 -11.274822 -12.332456 -11.166402
46.840000 -11.339565 -12.423858 -11.232733
46.880000 -11.384913 -12.498020 -11.281932
46.920000 -11.447315 -12.594225 -11.346540
46.960000 -11.498901 -12.670279 -11.402337
47.000000 -11.559511 -12.754350 -11.465906
47.040000 -11.617094 -12.843466 -11.530024
47.080000 -11.673035 -12.926182 -11.589481
47.120000 -11.739834 -13.026317 -11.658556
47.160000 -11.791517 -13.100877 -11.716412
47.200000 -11.867636 -13.209809 -11.795522
47.240000 -11.915131 -13.273395 -11.850616
47.280000 -11.985668 -13.367126 -11.924071
47.320000 -12.044069 -13.443468 -11.984754
47.360000 -12.109447 -13.524902 -12.061450
47.400000 -12.178830 -13.610382 -12.136913
47.440000 -12.239965 -13.683238 -12.210465
47.480000 -12.318081 -13.778660 -12.295003
47.520000 -12.378447 -13.849150 -12.366173
47.560000 -12.465062 -13.954554 -12.462020
47.600000 -12.525595 -14.023776 -12.532921
47.640000 -12.607398 -14.120901 -12.626667
47.680000 -12.679902 -14.212956 -12.709123
47.720000 -12.762193 -14.336882 -12.779661
47.760000 -12.848860 -14.472537 -12.869673
47.800000 -12.934594 -14.596780 -12.965143
47.840000 -13.040319 -14.736760 -13.083791
47.880000 -13.131484 -14.847006 -13.180214
47.920000 -13.272892 -15.024352 -13.322276
47.960000 -13.383251 -15.144641 -13.441854
48.000000 -13.571016 -15.353952 -13.637454
48.040000 -13.788845 -15.583826 -13.865507
48.080000 -14.232221 -16.028578 -14.317522
48.120000 nan nan nan
48.160000 nan nan nan
48.200000 -inf nan nan
48.240000 -inf nan nan
48.280000 -inf nan nan
48.320000 -inf nan nan
48.360000 -inf nan nan
48.400000 -inf nan nan
48.440000 -inf nan nan
48.480000 -inf nan nan
48.520000 -inf nan nan
48.560000 -inf nan nan
48.600000 -inf nan nan
48.640000 -inf nan nan
48.680000 -inf nan nan
48.720000 -inf nan nan
48.760000 -inf nan nan
48.800000 -inf nan nan
48.840000 -inf nan nan
48.880000 -inf nan nan
48.920000 -inf nan nan
48.960000 -inf nan nan
49.000000 -inf nan nan
49.040000 -inf nan nan
49.080000 -inf nan nan
49.120000 -inf nan nan
49.160000 -inf nan nan
49.200000 -inf nan nan
49.240000 -inf nan nan
49.280000 -inf nan nan
49.320000 -inf nan nan
49.360000 -inf nan nan
49.400000 -inf nan nan
49.440000 -inf nan nan
49.480000 -inf nan nan
49.520000 -inf nan nan
49.560000 -inf nan nan
49.600000 -inf nan nan
