#Quasar bolometric luminosity function in different black hole mass bins from TRINITY PaperIII (Fig. 3, Zhang+2024, MNRAS, 529, 2777)
#z: 4.00
#log10(Lbol [erg/s])(0) log10(QLF_total [Mpc^-3 dex^-1])(1) log10(QLF(5<logMbh<6) [Mpc^-3 dex^-1])(2) log10(QLF(5<logMbh<6)_16th [Mpc^-3 dex^-1])(3) log10(QLF(5<logMbh<6)_84th [Mpc^-3 dex^-1])(4)
#log10(QLF(6<logMbh<7) [Mpc^-3 dex^-1])(5) log10(QLF(6<logMbh<7)_16th [Mpc^-3 dex^-1])(6) log10(QLF(6<logMbh<7)_84th [Mpc^-3 dex^-1])(7)
#log10(QLF(7<logMbh<8) [Mpc^-3 dex^-1])(8) log10(QLF(7<logMbh<8)_16th [Mpc^-3 dex^-1])(9) log10(QLF(7<logMbh<8)_84th [Mpc^-3 dex^-1])(10)
#log10(QLF(8<logMbh<9) [Mpc^-3 dex^-1])(11) log10(QLF(8<logMbh<9)_16th [Mpc^-3 dex^-1])(12) log10(QLF(8<logMbh<9)_84th [Mpc^-3 dex^-1])(13)
#log10(QLF(9<logMbh<10) [Mpc^-3 dex^-1])(14) log10(QLF(9<logMbh<10)_16th [Mpc^-3 dex^-1])(15) log10(QLF(9<logMbh<10)_84th [Mpc^-3 dex^-1])(16)
40.000000 -5.546680 -6.746513 -7.380391 -6.605290 -5.958904 -6.506091 -5.886980 -5.880013 -6.466922 -5.821571 -6.633672 -7.294798 -6.560973 -7.955788 -8.752049 -7.809679
40.040000 -5.534556 -6.734237 -7.364887 -6.591825 -5.947211 -6.488544 -5.875254 -5.868347 -6.449060 -5.811805 -6.622003 -7.276692 -6.550909 -7.944120 -8.734121 -7.799841
40.080000 -5.522761 -6.722298 -7.349918 -6.578770 -5.935826 -6.471679 -5.865108 -5.856986 -6.431904 -5.799315 -6.610639 -7.259311 -6.541074 -7.932758 -8.716904 -7.790222
40.120000 -5.510875 -6.710350 -7.334832 -6.565592 -5.924365 -6.454631 -5.855184 -5.845540 -6.414547 -5.787727 -6.599194 -7.241728 -6.530296 -7.921313 -8.699478 -7.780571
40.160000 -5.498914 -6.698404 -7.319657 -6.552313 -5.912842 -6.437446 -5.845224 -5.834025 -6.398270 -5.778019 -6.587682 -7.223993 -6.518079 -7.909798 -8.681893 -7.770895
40.200000 -5.487274 -6.686778 -7.304995 -6.539433 -5.901617 -6.420915 -5.835581 -5.822807 -6.383000 -5.768528 -6.576466 -7.206955 -6.506196 -7.898581 -8.664993 -7.761431
40.240000 -5.475137 -6.674762 -7.289603 -6.528235 -5.889939 -6.404856 -5.825799 -5.811142 -6.367086 -5.758710 -6.564800 -7.188838 -6.493806 -7.886915 -8.647051 -7.751647
40.280000 -5.463331 -6.663070 -7.274739 -6.518475 -5.878567 -6.387964 -5.816231 -5.799782 -6.350829 -5.749114 -6.553440 -7.171447 -6.481760 -7.875554 -8.629821 -7.742080
40.320000 -5.451368 -6.651333 -7.259749 -6.508605 -5.867117 -6.372491 -5.806619 -5.788338 -6.335174 -5.739459 -6.541995 -7.153862 -6.469618 -7.864110 -8.612398 -7.732454
40.360000 -5.439269 -6.639562 -7.244050 -6.498745 -5.855602 -6.358578 -5.796969 -5.776824 -6.319397 -5.729752 -6.530479 -7.136132 -6.457399 -7.852597 -8.594828 -7.722777
40.400000 -5.427497 -6.628103 -7.227876 -6.489479 -5.844384 -6.344731 -5.787529 -5.765607 -6.304172 -5.720263 -6.519260 -7.119097 -6.445514 -7.841381 -8.577943 -7.713313
40.440000 -5.414987 -6.616227 -7.213525 -6.479749 -5.832716 -6.329432 -5.777784 -5.753941 -6.288101 -5.710206 -6.507596 -7.100986 -6.433124 -7.829713 -8.559992 -7.703530
40.480000 -5.402828 -6.604668 -7.198441 -6.470231 -5.821353 -6.314654 -5.768253 -5.742579 -6.272604 -5.700452 -6.496237 -7.083599 -6.421080 -7.818351 -8.542753 -7.693962
40.520000 -5.390374 -6.593062 -7.181728 -6.460738 -5.809907 -6.299731 -5.753884 -5.731135 -6.256950 -5.690657 -6.484793 -7.066010 -6.408939 -7.806907 -8.525324 -7.684336
40.560000 -5.377662 -6.581419 -7.164836 -6.451271 -5.798392 -6.284693 -5.740264 -5.719622 -6.241174 -5.680811 -6.473278 -7.048269 -6.396720 -7.795395 -8.507752 -7.674660
40.600000 -5.365311 -6.570080 -7.148578 -6.442006 -5.787174 -6.270160 -5.729456 -5.708407 -6.225952 -5.671184 -6.462061 -7.031225 -6.384836 -7.784180 -8.490864 -7.665196
40.640000 -5.351724 -6.558331 -7.131359 -6.432606 -5.775510 -6.255555 -5.718905 -5.696739 -6.209880 -5.661226 -6.450394 -7.013125 -6.372444 -7.772512 -8.472924 -7.655412
40.680000 -5.338549 -6.546892 -7.115830 -6.423405 -5.764152 -6.242048 -5.709025 -5.685377 -6.194383 -5.651556 -6.439032 -6.995748 -6.360396 -7.761149 -8.455696 -7.645843
40.720000 -5.324590 -6.535386 -7.101126 -6.414235 -5.752707 -6.228425 -5.699084 -5.673932 -6.178729 -5.641858 -6.427589 -6.978162 -6.348256 -7.749704 -8.438266 -7.636217
40.760000 -5.309935 -6.523828 -7.086317 -6.405098 -5.741192 -6.214711 -5.689094 -5.662420 -6.162952 -5.632109 -6.416078 -6.960416 -6.336041 -7.738192 -8.423504 -7.626543
40.800000 -5.295758 -6.512569 -7.071995 -6.396151 -5.729975 -6.200884 -5.679328 -5.651204 -6.147731 -5.622575 -6.404864 -6.943368 -6.324160 -7.726976 -8.409326 -7.617080
40.840000 -5.278064 -6.500876 -7.056625 -6.387089 -5.718310 -6.186323 -5.669222 -5.639538 -6.131661 -5.612716 -6.393193 -6.927319 -6.311766 -7.715310 -8.394423 -7.606734
40.880000 -5.261063 -6.489490 -7.041701 -6.378213 -5.706950 -6.171416 -5.659345 -5.628177 -6.116164 -5.603075 -6.381828 -6.912752 -6.299717 -7.703950 -8.380006 -7.595689
40.920000 -5.240611 -6.478030 -7.026885 -6.369353 -5.695507 -6.154143 -5.649409 -5.616732 -6.100510 -5.593376 -6.370384 -6.898046 -6.287576 -7.692505 -8.365299 -7.585684
40.960000 -5.217203 -6.466511 -7.011260 -6.359042 -5.683994 -6.136722 -5.639423 -5.605218 -6.084731 -5.583629 -6.358874 -6.883231 -6.275360 -7.680989 -8.350478 -7.576029
41.000000 -5.194993 -6.455289 -6.994893 -6.347249 -5.672779 -6.119973 -5.629662 -5.594001 -6.069506 -5.574095 -6.347661 -6.868907 -6.263479 -7.669772 -8.336149 -7.566583
41.040000 -5.157302 -6.443624 -6.978279 -6.333251 -5.661110 -6.102195 -5.616741 -5.582336 -6.053439 -5.564236 -6.335992 -6.853830 -6.251374 -7.658106 -8.321078 -7.556822
41.080000 -5.122622 -6.432265 -6.964559 -6.322127 -5.649746 -6.085329 -5.601862 -5.570976 -6.037946 -5.554595 -6.324628 -6.839261 -6.239608 -7.646745 -8.305978 -7.547274
41.120000 -5.092693 -6.420822 -6.950712 -6.309067 -5.638303 -6.068392 -5.586834 -5.559532 -6.022292 -5.544897 -6.313183 -6.824555 -6.227751 -7.635301 -8.289116 -7.537668
41.160000 -5.066752 -6.409310 -6.936763 -6.295918 -5.626793 -6.051314 -5.571391 -5.548018 -6.005972 -5.533281 -6.301670 -6.809741 -6.215821 -7.623788 -8.272092 -7.528011
41.200000 -5.042274 -6.398096 -6.923247 -6.283158 -5.615581 -6.034882 -5.555910 -5.536801 -5.990214 -5.521926 -6.290454 -6.793389 -6.204212 -7.612571 -8.255410 -7.518564
41.240000 -5.036461 -6.386431 -6.907339 -6.267269 -5.603915 -6.018588 -5.539560 -5.525134 -5.973550 -5.510102 -6.278788 -6.776048 -6.192117 -7.600904 -8.238222 -7.508801
41.280000 -5.030725 -6.375071 -6.891994 -6.251941 -5.592554 -6.005751 -5.523803 -5.513773 -5.957503 -5.498594 -6.267428 -6.759376 -6.180354 -7.589543 -8.222853 -7.499253
41.320000 -5.024997 -6.363624 -6.875095 -6.234675 -5.581112 -5.992811 -5.507883 -5.502329 -5.941285 -5.487002 -6.255983 -6.742516 -6.168459 -7.578099 -8.207323 -7.489648
41.360000 -5.019277 -6.352103 -6.856833 -6.215717 -5.569602 -5.979786 -5.496194 -5.490819 -5.924935 -5.475391 -6.244469 -6.725513 -6.156101 -7.566587 -8.191670 -7.479994
41.400000 -5.013631 -6.340880 -6.838739 -6.197553 -5.558389 -5.965684 -5.484940 -5.479605 -5.909180 -5.464121 -6.233252 -6.709152 -6.144084 -7.555372 -8.175577 -7.470550
41.440000 -5.007115 -6.327288 -6.816954 -6.175709 -5.546727 -5.951720 -5.473232 -5.467937 -5.892515 -5.452393 -6.221585 -6.691811 -6.131547 -7.543703 -8.158019 -7.460784
41.480000 -5.000695 -6.314108 -6.796209 -6.155443 -5.535369 -5.939396 -5.461831 -5.456574 -5.876467 -5.440974 -6.210224 -6.675076 -6.119362 -7.532340 -8.141144 -7.451233
41.520000 -4.994520 -6.298826 -6.773849 -6.133517 -5.523930 -5.926973 -5.450595 -5.445131 -5.860249 -5.429471 -6.198780 -6.657698 -6.107085 -7.520896 -8.124025 -7.441627
41.560000 -4.988581 -6.281669 -6.750160 -6.110217 -5.512422 -5.914471 -5.440618 -5.433622 -5.843902 -5.417898 -6.187269 -6.640171 -6.094732 -7.509383 -8.106600 -7.431975
41.600000 -4.982721 -6.265164 -6.728357 -6.087594 -5.501210 -5.902319 -5.430465 -5.422410 -5.828148 -5.406627 -6.176055 -6.624829 -6.084799 -7.498168 -8.089848 -7.422533
41.640000 -4.975975 -6.244727 -6.702801 -6.059447 -5.489551 -5.889637 -5.416167 -5.410742 -5.811485 -5.394900 -6.164385 -6.608876 -6.075080 -7.486501 -8.072081 -7.412767
41.680000 -4.969331 -6.225209 -6.678668 -6.033013 -5.478197 -5.877315 -5.404445 -5.399380 -5.795438 -5.383482 -6.153020 -6.593488 -6.065577 -7.475140 -8.055011 -7.403215
41.720000 -4.961921 -6.204189 -6.652009 -6.004393 -5.466762 -5.864895 -5.392967 -5.387937 -5.779222 -5.371981 -6.141576 -6.577947 -6.056018 -7.463695 -8.037746 -7.393608
41.760000 -4.953785 -6.181916 -6.622114 -5.979898 -5.455261 -5.852386 -5.381421 -5.376428 -5.762876 -5.360412 -6.130067 -6.562286 -6.046413 -7.452180 -8.020332 -7.383954
41.800000 -4.945799 -6.160729 -6.593492 -5.959530 -5.444056 -5.839601 -5.370175 -5.365216 -5.747124 -5.349143 -6.118855 -6.547172 -6.037018 -7.440964 -8.003590 -7.374510
41.840000 -4.936395 -6.135653 -6.556876 -5.935238 -5.432400 -5.824250 -5.358478 -5.353552 -5.730463 -5.337416 -6.107186 -6.531214 -6.027300 -7.429298 -7.985809 -7.364747
41.880000 -4.927190 -6.111945 -6.523152 -5.912270 -5.421049 -5.809427 -5.347088 -5.342192 -5.714420 -5.325999 -6.095822 -6.515824 -6.017798 -7.417938 -7.968708 -7.355198
41.920000 -4.917463 -6.086327 -6.488650 -5.887802 -5.409620 -5.794457 -5.335620 -5.330751 -5.698206 -5.314501 -6.084377 -6.500280 -6.008239 -7.406494 -7.951354 -7.345592
41.960000 -4.907253 -6.059187 -6.455801 -5.859510 -5.398128 -5.779374 -5.324086 -5.319241 -5.681862 -5.302935 -6.072865 -6.484619 -5.998632 -7.394980 -7.933863 -7.335936
42.000000 -4.897277 -6.033644 -6.426246 -5.822033 -5.386932 -5.764801 -5.312850 -5.308029 -5.666111 -5.291671 -6.061650 -6.469504 -5.989351 -7.383763 -7.917050 -7.326319
42.040000 -4.886407 -6.002291 -6.390511 -5.776948 -5.375287 -5.749454 -5.301166 -5.296368 -5.649234 -5.279549 -6.049985 -6.452134 -5.979779 -7.372097 -7.899177 -7.316073
42.080000 -4.875802 -5.973051 -6.357495 -5.736120 -5.363945 -5.734634 -5.289595 -5.285012 -5.633801 -5.266810 -6.038625 -6.435250 -5.970415 -7.360736 -7.882010 -7.306067
42.120000 -4.864655 -5.941565 -6.321094 -5.695047 -5.352528 -5.719672 -5.278186 -5.273574 -5.616463 -5.253973 -6.027180 -6.418172 -5.960091 -7.349292 -7.864651 -7.295995
42.160000 -4.853013 -5.908421 -6.282285 -5.653398 -5.341047 -5.704597 -5.266816 -5.262069 -5.599635 -5.241057 -6.015664 -6.400947 -5.945873 -7.337778 -7.847145 -7.285869
42.200000 -4.841674 -5.877627 -6.246586 -5.617142 -5.329862 -5.690031 -5.255597 -5.250860 -5.586135 -5.229838 -6.004446 -6.384861 -5.932108 -7.326562 -7.830318 -7.275976
42.240000 -4.828832 -5.840907 -6.201378 -5.583050 -5.318239 -5.673997 -5.243501 -5.239202 -5.570071 -5.219062 -5.992783 -6.371243 -5.917642 -7.314895 -7.812464 -7.265729
42.280000 -4.816359 -5.807052 -6.160452 -5.551449 -5.306919 -5.660679 -5.231734 -5.227848 -5.554322 -5.207923 -5.981424 -6.358040 -5.903647 -7.303532 -7.795317 -7.255721
42.320000 -4.803403 -5.771200 -6.122878 -5.518808 -5.295523 -5.645524 -5.217180 -5.216415 -5.538411 -5.195925 -5.969981 -6.344727 -5.889522 -7.292088 -7.777960 -7.242485
42.360000 -4.790018 -5.734005 -6.088858 -5.486735 -5.284064 -5.630560 -5.206846 -5.204917 -5.522375 -5.183852 -5.958468 -6.331324 -5.875294 -7.280575 -7.760446 -7.228080
42.400000 -4.777034 -5.699746 -6.057311 -5.458154 -5.272899 -5.616210 -5.197453 -5.193715 -5.506910 -5.172108 -5.947252 -6.318435 -5.861563 -7.269360 -7.743610 -7.214139
42.440000 -4.762396 -5.666745 -6.032608 -5.432708 -5.258002 -5.596903 -5.182197 -5.182064 -5.490578 -5.159879 -5.935586 -6.305193 -5.847612 -7.257693 -7.727011 -7.199480
42.480000 -4.748236 -5.636076 -6.008717 -5.408682 -5.243600 -5.578426 -5.167195 -5.170718 -5.474838 -5.147984 -5.924226 -6.292342 -5.834108 -7.246331 -7.713537 -7.185301
42.520000 -4.733164 -5.609130 -5.982830 -5.385336 -5.226244 -5.558377 -5.147062 -5.159293 -5.458940 -5.136563 -5.912784 -6.279385 -5.821461 -7.234887 -7.699944 -7.171001
42.560000 -4.717287 -5.585367 -5.953305 -5.362629 -5.206294 -5.537005 -5.125235 -5.147803 -5.442923 -5.125119 -5.901275 -6.266341 -5.812031 -7.223375 -7.686257 -7.156605
42.600000 -4.701970 -5.562836 -5.925674 -5.341052 -5.187221 -5.516647 -5.098935 -5.136609 -5.427475 -5.113972 -5.890063 -6.253677 -5.802814 -7.212159 -7.672991 -7.142672
42.640000 -4.684364 -5.539954 -5.896221 -5.319036 -5.164372 -5.487773 -5.063093 -5.124975 -5.411164 -5.102389 -5.878396 -6.237784 -5.793563 -7.200494 -7.659087 -7.128015
42.680000 -4.667444 -5.518217 -5.868650 -5.298088 -5.142665 -5.455592 -5.029986 -5.113645 -5.395444 -5.092446 -5.867035 -6.221670 -5.784751 -7.189133 -7.645677 -7.113838
42.720000 -4.649878 -5.496395 -5.841067 -5.277476 -5.119658 -5.421243 -4.994629 -5.102236 -5.379569 -5.078774 -5.855593 -6.205387 -5.775890 -7.177689 -7.632718 -7.102751
42.760000 -4.631767 -5.474552 -5.813779 -5.256947 -5.095600 -5.391306 -4.959013 -5.090761 -5.363577 -5.066467 -5.844085 -6.190412 -5.766986 -7.166176 -7.619668 -7.093107
42.800000 -4.614382 -5.453755 -5.792110 -5.237177 -5.072805 -5.365828 -4.932807 -5.079582 -5.348152 -5.054500 -5.832875 -6.177363 -5.758263 -7.154959 -7.606999 -7.083982
42.840000 -4.594948 -5.432036 -5.769085 -5.217376 -5.045387 -5.333577 -4.903701 -5.067974 -5.331880 -5.042230 -5.821213 -6.163696 -5.749267 -7.143294 -7.591118 -7.074065
42.880000 -4.576347 -5.411352 -5.747237 -5.199074 -5.019598 -5.301675 -4.871894 -5.056667 -5.316195 -5.030724 -5.809855 -6.150447 -5.740457 -7.131933 -7.575455 -7.061348
42.920000 -4.556955 -5.390843 -5.726041 -5.180926 -4.992392 -5.276138 -4.836928 -5.045286 -5.300360 -5.019149 -5.798416 -6.137084 -5.731597 -7.120490 -7.559627 -7.051267
42.960000 -4.536906 -5.370529 -5.705013 -5.163094 -4.964107 -5.246581 -4.803156 -5.033843 -5.286747 -5.007519 -5.786908 -6.123194 -5.722463 -7.108977 -7.543671 -7.041990
43.000000 -4.517742 -5.351122 -5.679601 -5.145972 -4.937553 -5.216374 -4.776199 -5.022694 -5.274598 -4.996192 -5.775697 -6.109625 -5.710374 -7.097761 -7.528283 -7.032916
43.040000 -4.496395 -5.331501 -5.650675 -5.126281 -4.907124 -5.177937 -4.751210 -5.011126 -5.261936 -4.984439 -5.764041 -6.095304 -5.697761 -7.086095 -7.512025 -7.023975
43.080000 -4.476049 -5.312728 -5.623579 -5.097277 -4.878689 -5.139450 -4.724980 -4.999858 -5.249633 -4.972998 -5.752690 -6.081383 -5.685508 -7.074734 -7.496357 -7.015407
43.120000 -4.455153 -5.294492 -5.595403 -5.066665 -4.848956 -5.099282 -4.691423 -4.988526 -5.236387 -4.962206 -5.741256 -6.066546 -5.673164 -7.063292 -7.480531 -7.006792
43.160000 -4.433827 -5.276759 -5.568596 -5.036422 -4.818293 -5.058635 -4.657904 -4.977142 -5.221199 -4.951537 -5.729752 -6.049156 -5.660750 -7.051783 -7.464585 -6.998138
43.200000 -4.413499 -5.259722 -5.544095 -5.010098 -4.789652 -5.021471 -4.629564 -4.966048 -5.196697 -4.941126 -5.718545 -6.032436 -5.648683 -7.040570 -7.449207 -6.989652
43.240000 -4.391619 -5.243256 -5.511303 -4.987854 -4.757967 -4.981780 -4.601923 -4.954554 -5.166100 -4.926945 -5.706894 -6.014682 -5.636094 -7.028904 -7.432945 -6.980908
43.280000 -4.370789 -5.227390 -5.483603 -4.967357 -4.728438 -4.946977 -4.575937 -4.943357 -5.153384 -4.914179 -5.695548 -6.000054 -5.623863 -7.017542 -7.417273 -6.972336
43.320000 -4.349886 -5.211724 -5.463012 -4.949903 -4.698696 -4.914798 -4.553345 -4.932095 -5.125428 -4.896418 -5.684122 -5.987246 -5.611545 -7.006101 -7.401445 -6.963365
43.360000 -4.328965 -5.196257 -5.432026 -4.932446 -4.668906 -4.884791 -4.533711 -4.920781 -5.092439 -4.882208 -5.672631 -5.971398 -5.598745 -6.994594 -7.385498 -6.953819
43.400000 -4.309005 -5.181321 -5.400170 -4.917490 -4.641029 -4.856742 -4.511663 -4.909755 -5.072679 -4.860645 -5.661436 -5.956113 -5.585042 -6.983384 -7.370119 -6.940688
43.440000 -4.288477 -5.165133 -5.364275 -4.902227 -4.615487 -4.837719 -4.492704 -4.891170 -5.045694 -4.823277 -5.649793 -5.939880 -5.570682 -6.971719 -7.353176 -6.926925
43.480000 -4.268875 -5.149527 -5.334891 -4.887497 -4.591365 -4.821364 -4.474964 -4.873348 -5.009103 -4.797744 -5.638455 -5.923617 -5.556119 -6.960360 -7.336840 -6.913590
43.520000 -4.249758 -5.132933 -5.301074 -4.866555 -4.571711 -4.801492 -4.460389 -4.848072 -4.971639 -4.771842 -5.627043 -5.907189 -5.541316 -6.948920 -7.320324 -6.900140
43.560000 -4.231100 -5.115479 -5.273230 -4.843897 -4.555993 -4.778980 -4.448684 -4.816605 -4.943061 -4.739947 -5.615570 -5.890638 -5.526416 -6.937414 -7.305719 -6.886599
43.600000 -4.213210 -5.098700 -5.250353 -4.822362 -4.540825 -4.760764 -4.437448 -4.787265 -4.915128 -4.709151 -5.604392 -5.874695 -5.512011 -6.926205 -7.292021 -6.872269
43.640000 -4.196239 -5.078951 -5.224855 -4.806234 -4.530030 -4.744866 -4.430196 -4.751920 -4.880042 -4.670686 -5.592772 -5.857829 -5.496901 -6.914546 -7.277628 -6.858850
43.680000 -4.179906 -5.060060 -5.202622 -4.790683 -4.519496 -4.727641 -4.417503 -4.719236 -4.840269 -4.638256 -5.581454 -5.841594 -5.482790 -6.903191 -7.263702 -6.844594
43.720000 -4.164644 -5.041561 -5.180870 -4.781152 -4.510934 -4.717211 -4.406420 -4.686679 -4.800830 -4.606563 -5.570065 -5.825203 -5.473717 -6.891756 -7.249656 -6.830211
43.760000 -4.150362 -5.023438 -5.155645 -4.782238 -4.504234 -4.705657 -4.397672 -4.654386 -4.767781 -4.575823 -5.558618 -5.808696 -5.464625 -6.880253 -7.235515 -6.815727
43.800000 -4.136536 -5.006040 -5.124401 -4.775702 -4.497635 -4.694403 -4.389115 -4.624330 -4.736846 -4.547233 -5.547464 -5.792793 -5.450800 -6.869046 -7.221825 -6.801711
43.840000 -4.124917 -4.993620 -5.103608 -4.781381 -4.495503 -4.686532 -4.385267 -4.594795 -4.705543 -4.518201 -5.535886 -5.775995 -5.437654 -6.857394 -7.207438 -6.786988
43.880000 -4.113602 -4.981544 -5.083767 -4.789511 -4.493382 -4.678801 -4.380678 -4.567141 -4.678103 -4.490526 -5.524609 -5.762639 -5.426011 -6.846045 -7.193518 -6.773014
43.920000 -4.103584 -4.974981 -5.070905 -4.800216 -4.493640 -4.672911 -4.378936 -4.540621 -4.651869 -4.463864 -5.513263 -5.747760 -5.413576 -6.834618 -7.179475 -6.759453
43.960000 -4.094782 -4.973686 -5.064438 -4.813784 -4.496283 -4.666032 -4.381613 -4.515137 -4.626731 -4.438718 -5.501861 -5.732073 -5.400741 -6.823126 -7.165337 -6.745804
44.000000 -4.086155 -4.972395 -5.058809 -4.819998 -4.498942 -4.658428 -4.386396 -4.491066 -4.603659 -4.415442 -5.490751 -5.716952 -5.388311 -6.811930 -7.151649 -6.732574
44.040000 -4.080492 -4.981985 -5.068701 -4.847151 -4.506268 -4.657949 -4.399145 -4.468547 -4.582748 -4.394862 -5.479241 -5.701629 -5.374734 -6.800285 -7.137488 -6.720581
44.080000 -4.074903 -4.991792 -5.080637 -4.883841 -4.513721 -4.655645 -4.412280 -4.447139 -4.562797 -4.375212 -5.468028 -5.687751 -5.361291 -6.788943 -7.124332 -6.709453
44.120000 -4.071123 -5.005773 -5.096821 -4.915573 -4.523352 -4.653936 -4.429100 -4.428216 -4.544973 -4.358593 -5.456760 -5.672884 -5.346902 -6.777528 -7.111065 -6.697960
44.160000 -4.069108 -5.024337 -5.127506 -4.950779 -4.535306 -4.659921 -4.450495 -4.411508 -4.525641 -4.347232 -5.445448 -5.657547 -5.331673 -6.766052 -7.097698 -6.683162
44.200000 -4.067101 -5.043730 -5.153411 -4.985141 -4.547599 -4.669945 -4.465048 -4.395420 -4.510311 -4.333695 -5.434423 -5.642735 -5.316148 -6.754872 -7.084053 -6.668852
44.240000 -4.068591 -5.069493 -5.183712 -5.025849 -4.563162 -4.682078 -4.479659 -4.383820 -4.498886 -4.322465 -5.423029 -5.624692 -5.301232 -6.743246 -7.067217 -6.654134
44.280000 -4.070086 -5.096881 -5.215835 -5.074292 -4.579303 -4.693174 -4.495516 -4.372523 -4.483679 -4.315905 -5.411926 -5.593974 -5.286987 -6.731923 -7.050995 -6.640313
44.320000 -4.073348 -5.129636 -5.264417 -5.111121 -4.596626 -4.699683 -4.514444 -4.363846 -4.469432 -4.309674 -5.400144 -5.554151 -5.264196 -6.720528 -7.034613 -6.625562
44.360000 -4.078418 -5.168920 -5.334676 -5.157148 -4.615251 -4.704634 -4.538890 -4.357641 -4.458632 -4.309450 -5.387744 -5.527286 -5.244479 -6.709075 -7.018108 -6.610725
44.400000 -4.083548 -5.212115 -5.408250 -5.202555 -4.634711 -4.714351 -4.567289 -4.351523 -4.447506 -4.305770 -5.375688 -5.513606 -5.222980 -6.697916 -7.002212 -6.596378
44.440000 -4.092177 -5.265786 -5.494645 -5.261544 -4.655477 -4.727996 -4.591070 -4.352053 -4.442786 -4.312615 -5.346940 -5.480258 -5.177973 -6.686329 -6.985424 -6.582104
