#Quasar bolometric luminosity function in different black hole mass bins from TRINITY PaperIII (Fig. 3, Zhang+2024, MNRAS, 529, 2777)
#z: 6.00
#log10(Lbol [erg/s])(0) log10(QLF_total [Mpc^-3 dex^-1])(1) log10(QLF(5<logMbh<6) [Mpc^-3 dex^-1])(2) log10(QLF(5<logMbh<6)_16th [Mpc^-3 dex^-1])(3) log10(QLF(5<logMbh<6)_84th [Mpc^-3 dex^-1])(4)
#log10(QLF(6<logMbh<7) [Mpc^-3 dex^-1])(5) log10(QLF(6<logMbh<7)_16th [Mpc^-3 dex^-1])(6) log10(QLF(6<logMbh<7)_84th [Mpc^-3 dex^-1])(7)
#log10(QLF(7<logMbh<8) [Mpc^-3 dex^-1])(8) log10(QLF(7<logMbh<8)_16th [Mpc^-3 dex^-1])(9) log10(QLF(7<logMbh<8)_84th [Mpc^-3 dex^-1])(10)
#log10(QLF(8<logMbh<9) [Mpc^-3 dex^-1])(11) log10(QLF(8<logMbh<9)_16th [Mpc^-3 dex^-1])(12) log10(QLF(8<logMbh<9)_84th [Mpc^-3 dex^-1])(13)
#log10(QLF(9<logMbh<10) [Mpc^-3 dex^-1])(14) log10(QLF(9<logMbh<10)_16th [Mpc^-3 dex^-1])(15) log10(QLF(9<logMbh<10)_84th [Mpc^-3 dex^-1])(16)
40.000000 -6.891875 -7.863762 -9.016453 -7.860853 -7.147871 -8.102950 -7.332790 -7.363924 -8.199745 -7.352118 -8.415678 -9.189470 -8.215693 -10.121923 -11.499721 -10.013524
40.040000 -6.878011 -7.848003 -8.992554 -7.842807 -7.134992 -8.086501 -7.317753 -7.350968 -8.180626 -7.339438 -8.402796 -9.172385 -8.203909 -10.067466 -11.189888 -9.932780
40.080000 -6.864576 -7.832797 -8.969908 -7.825481 -7.122484 -8.070653 -7.303224 -7.338387 -8.162314 -7.327117 -8.390285 -9.155773 -8.192085 -10.019083 -11.073537 -9.820303
40.120000 -6.851080 -7.818164 -8.951713 -7.808212 -7.109791 -8.054823 -7.288697 -7.325720 -8.143800 -7.314703 -8.377677 -9.138896 -8.178777 -9.978992 -10.983384 -9.789954
40.160000 -6.837540 -7.804065 -8.937479 -7.791611 -7.096939 -8.039026 -7.274189 -7.312985 -8.125140 -7.302213 -8.364990 -9.121879 -8.165561 -9.945473 -10.951358 -9.768719
40.200000 -6.824409 -7.790409 -8.923709 -7.775656 -7.084457 -8.023786 -7.260155 -7.300612 -8.107249 -7.290073 -8.352663 -9.105503 -8.152933 -9.914358 -10.887984 -9.746276
40.240000 -6.810702 -7.777375 -8.909206 -7.760129 -7.071264 -8.007744 -7.245557 -7.287708 -8.088213 -7.277401 -8.339777 -9.088140 -8.139727 -9.889252 -10.834362 -9.719082
40.280000 -6.797413 -7.764720 -8.895183 -7.746237 -7.058459 -7.992274 -7.232237 -7.275176 -8.069976 -7.265089 -8.327262 -9.071444 -8.126911 -9.865519 -10.783227 -9.693582
40.320000 -6.783939 -7.752041 -8.881025 -7.730473 -7.045591 -7.976584 -7.218552 -7.262552 -8.051515 -7.252680 -8.314652 -9.054572 -8.113964 -9.843956 -10.758450 -9.676702
40.360000 -6.770307 -7.739349 -8.866757 -7.710806 -7.032677 -7.960717 -7.204475 -7.249852 -8.032889 -7.240190 -8.301965 -9.037565 -8.100909 -9.824312 -10.712428 -9.661471
40.400000 -6.757090 -7.727017 -8.852958 -7.691454 -7.020135 -7.945407 -7.190962 -7.237513 -8.015029 -7.228050 -8.289637 -9.021200 -8.088234 -9.805519 -10.681384 -9.642012
40.440000 -6.742931 -7.714138 -8.838407 -7.673629 -7.007098 -7.928958 -7.176993 -7.224625 -7.996012 -7.215379 -8.276749 -9.003836 -8.074916 -9.788610 -10.658387 -9.627757
40.480000 -6.729219 -7.701630 -8.824343 -7.656506 -6.994442 -7.913108 -7.163466 -7.212108 -7.977793 -7.203068 -8.264232 -8.987140 -8.061995 -9.772335 -10.636552 -9.613955
40.520000 -6.715115 -7.689020 -8.810143 -7.639969 -6.981703 -7.897134 -7.149828 -7.199496 -7.959344 -7.190631 -8.251611 -8.970266 -8.048995 -9.756836 -10.615477 -9.600198
40.560000 -6.700670 -7.676327 -8.795836 -7.623978 -6.968900 -7.881070 -7.136103 -7.186806 -7.940722 -7.178454 -8.238905 -8.953258 -8.035935 -9.742054 -10.595103 -9.586493
40.600000 -6.686690 -7.663994 -8.781999 -7.608554 -6.956463 -7.865579 -7.122803 -7.174476 -7.922867 -7.167183 -8.226560 -8.936890 -8.023256 -9.727758 -10.575643 -9.573208
40.640000 -6.671017 -7.651116 -8.767452 -7.594649 -6.943499 -7.849384 -7.108861 -7.161595 -7.903839 -7.156943 -8.213671 -8.919533 -8.010019 -9.713874 -10.555907 -9.559283
40.680000 -6.655891 -7.638609 -8.753390 -7.581206 -6.930910 -7.832683 -7.095357 -7.149086 -7.885988 -7.146678 -8.201153 -8.902842 -7.997241 -9.700419 -10.537030 -9.545790
40.720000 -6.639606 -7.626000 -8.738756 -7.567590 -6.918236 -7.814342 -7.081337 -7.136476 -7.868597 -7.134140 -8.188536 -8.885968 -7.984689 -9.687167 -10.518294 -9.532185
40.760000 -6.622307 -7.613307 -8.723619 -7.553832 -6.905494 -7.795843 -7.066960 -7.123784 -7.851056 -7.121525 -8.175839 -8.868955 -7.972063 -9.674109 -10.499717 -9.518491
40.800000 -6.605671 -7.600974 -8.709000 -7.540314 -6.893115 -7.778043 -7.052985 -7.111453 -7.834006 -7.109265 -8.163502 -8.852919 -7.959797 -9.661433 -10.481902 -9.505215
40.840000 -6.583714 -7.587902 -8.692374 -7.526271 -6.880204 -7.758569 -7.038166 -7.098573 -7.814333 -7.096463 -8.150626 -8.836666 -7.946986 -9.648544 -10.463339 -9.493757
40.880000 -6.562815 -7.575211 -8.676365 -7.513421 -6.867666 -7.739931 -7.023835 -7.086064 -7.795513 -7.084028 -8.138121 -8.819820 -7.934546 -9.636027 -10.445538 -9.482963
40.920000 -6.536302 -7.562258 -8.660107 -7.500480 -6.855034 -7.721053 -7.009372 -7.073454 -7.776451 -7.071497 -8.125509 -8.802083 -7.922006 -9.623411 -10.427581 -9.472185
40.960000 -6.505202 -7.549074 -8.643647 -7.487027 -6.842326 -7.701998 -6.994804 -7.060761 -7.757213 -7.058887 -8.112811 -8.784654 -7.909384 -9.610716 -10.409518 -9.461430
41.000000 -6.476180 -7.536279 -8.627793 -7.473978 -6.829979 -7.683744 -6.980709 -7.048429 -7.738791 -7.046633 -8.100473 -8.768275 -7.897123 -9.598381 -10.392178 -9.450938
41.040000 -6.417888 -7.522894 -8.610802 -7.461256 -6.817088 -7.664239 -6.965892 -7.035552 -7.719583 -7.033835 -8.087598 -8.750930 -7.884317 -9.585503 -10.373787 -9.440042
41.080000 -6.366502 -7.509908 -8.594454 -7.448897 -6.804569 -7.645573 -6.951565 -7.023046 -7.701474 -7.021404 -8.075093 -8.734252 -7.871881 -9.572996 -10.358462 -9.429417
41.120000 -6.279645 -7.496869 -8.577858 -7.436909 -6.791954 -7.626669 -6.937103 -7.010434 -7.683146 -7.008874 -8.062484 -8.717379 -7.859341 -9.560387 -10.342988 -9.418720
41.160000 -6.175441 -7.483792 -8.561062 -7.425271 -6.779261 -7.607587 -6.922534 -6.997736 -7.664658 -6.996265 -8.049790 -8.701218 -7.846716 -9.547694 -10.327397 -9.407388
41.200000 -6.091465 -7.471097 -8.544579 -7.413940 -6.766929 -7.591399 -6.908438 -6.985399 -7.646924 -6.984011 -8.037457 -8.685839 -7.834452 -9.535361 -10.312346 -9.395249
41.240000 -6.066245 -7.457943 -8.524759 -7.403137 -6.754048 -7.576113 -6.893623 -6.972518 -7.628026 -6.971214 -8.024577 -8.668626 -7.823979 -9.522484 -10.296460 -9.382579
41.280000 -6.042410 -7.445175 -8.505807 -7.392725 -6.741539 -7.557487 -6.879297 -6.960009 -7.609917 -6.958783 -8.012069 -8.652071 -7.813837 -9.509977 -10.281137 -9.370686
41.320000 -6.032884 -7.432339 -8.485791 -7.379014 -6.728928 -7.538424 -6.865443 -6.947398 -7.591589 -6.946252 -7.999460 -8.635324 -7.803629 -9.497368 -10.265661 -9.358913
41.360000 -6.036746 -7.419450 -8.464891 -7.362326 -6.716236 -7.519185 -6.851706 -6.934704 -7.573099 -6.933640 -7.986769 -8.618432 -7.793367 -9.484674 -10.250066 -9.347068
41.400000 -6.040643 -7.406933 -8.444952 -7.345225 -6.703904 -7.500963 -6.838395 -6.922371 -7.555364 -6.921385 -7.974438 -8.602529 -7.783345 -9.472342 -10.234920 -9.335539
41.440000 -6.040075 -7.391892 -8.421824 -7.321319 -6.691025 -7.481958 -6.824432 -6.909490 -7.536471 -6.908590 -7.961556 -8.587809 -7.772963 -9.459461 -10.218474 -9.323522
41.480000 -6.039508 -7.377354 -8.399868 -7.298661 -6.678517 -7.463756 -6.810308 -6.896980 -7.518367 -6.896161 -7.949045 -8.573571 -7.762828 -9.446951 -10.202632 -9.311832
41.520000 -6.039581 -7.361171 -8.376443 -7.274327 -6.665907 -7.445830 -6.796032 -6.884370 -7.500039 -6.883632 -7.936437 -8.559200 -7.752625 -9.434342 -10.186618 -9.300057
41.560000 -6.040294 -7.343539 -8.351833 -7.248646 -6.653215 -7.428938 -6.781656 -6.871678 -7.481982 -6.871019 -7.923750 -8.544724 -7.742364 -9.421654 -10.170472 -9.288212
41.600000 -6.041009 -7.326595 -8.328546 -7.224399 -6.640883 -7.412679 -6.767740 -6.859346 -7.464604 -6.858763 -7.911423 -8.530715 -7.732345 -9.409325 -10.154908 -9.276684
41.640000 -6.039521 -7.306167 -8.299631 -7.197058 -6.628004 -7.395461 -6.753119 -6.846465 -7.445624 -6.845969 -7.898537 -8.515921 -7.721964 -9.396442 -10.138460 -9.264670
41.680000 -6.038039 -7.286657 -8.272529 -7.171337 -6.615496 -7.378901 -6.738973 -6.833955 -7.427439 -6.833541 -7.886022 -8.501256 -7.711829 -9.383929 -10.122347 -9.252982
41.720000 -6.038183 -7.265523 -8.242701 -7.144772 -6.602886 -7.362160 -6.724701 -6.821347 -7.409029 -6.821013 -7.873412 -8.486241 -7.701626 -9.371319 -10.104104 -9.241207
41.760000 -6.039955 -7.243032 -8.219631 -7.117595 -6.590192 -7.345282 -6.710329 -6.808658 -7.391557 -6.808403 -7.860725 -8.471782 -7.691366 -9.358629 -10.085704 -9.229363
41.800000 -6.041735 -7.221648 -8.197082 -7.092019 -6.577858 -7.328883 -6.696418 -6.796329 -7.374835 -6.796147 -7.848397 -8.456174 -7.681348 -9.346300 -10.068054 -9.218804
41.840000 -6.043145 -7.195814 -8.168590 -7.063370 -6.564980 -7.310984 -6.681797 -6.783445 -7.357679 -6.783352 -7.835515 -8.439264 -7.670965 -9.333418 -10.049239 -9.208570
41.880000 -6.044560 -7.171430 -8.141881 -7.036494 -6.552472 -7.293794 -6.667653 -6.770932 -7.341345 -6.770923 -7.823004 -8.422990 -7.660830 -9.320908 -10.031210 -9.198574
41.920000 -6.044286 -7.145123 -8.112919 -7.009666 -6.539861 -7.276404 -6.653381 -6.758322 -7.324834 -6.758395 -7.810393 -8.406532 -7.650628 -9.308299 -10.012967 -9.188516
41.960000 -6.042328 -7.117300 -8.077751 -6.980062 -6.527165 -7.258861 -6.639009 -6.745633 -7.308186 -6.745786 -7.797702 -8.389932 -7.640370 -9.295610 -9.996112 -9.176706
42.000000 -6.040378 -7.091151 -8.042433 -6.952557 -6.514830 -7.242001 -6.625097 -6.733304 -7.292156 -6.733531 -7.785372 -8.373945 -7.630352 -9.283281 -9.980422 -9.164488
42.040000 -6.034458 -7.060015 -7.996621 -6.921683 -6.501949 -7.224101 -6.609949 -6.720423 -7.275183 -6.720736 -7.772492 -8.357031 -7.619969 -9.270399 -9.963837 -9.151731
42.080000 -6.028617 -7.030963 -7.955191 -6.892903 -6.489439 -7.206911 -6.594486 -6.707914 -7.258422 -6.708306 -7.759984 -8.340618 -7.609831 -9.257889 -9.947861 -9.139338
42.120000 -6.021301 -6.999747 -7.907684 -6.864144 -6.476828 -7.189517 -6.578862 -6.695304 -7.241147 -6.695779 -7.747373 -8.323443 -7.599297 -9.245278 -9.931712 -9.126847
42.160000 -6.012583 -6.966931 -7.855952 -6.825114 -6.464136 -7.171967 -6.565316 -6.682612 -7.223724 -6.683170 -7.734679 -8.306120 -7.584739 -9.232585 -9.915431 -9.114273
42.200000 -6.004037 -6.936421 -7.809744 -6.783678 -6.451804 -7.155101 -6.553019 -6.670281 -7.206975 -6.670917 -7.722346 -8.289461 -7.570654 -9.220253 -9.899738 -9.102053
42.240000 -5.992880 -6.897153 -7.761998 -6.733853 -6.438924 -7.137239 -6.538215 -6.657401 -7.189192 -6.658120 -7.709471 -8.271787 -7.555846 -9.207376 -9.883156 -9.089298
42.280000 -5.982003 -6.861143 -7.718988 -6.694192 -6.426415 -7.120206 -6.523899 -6.644892 -7.173083 -6.645689 -7.696967 -8.254805 -7.541527 -9.194870 -9.867184 -9.076907
42.320000 -5.969804 -6.822423 -7.679846 -6.666383 -6.413805 -7.100005 -6.508885 -6.632282 -7.157613 -6.633159 -7.684356 -8.237632 -7.527073 -9.182260 -9.851036 -9.064415
42.360000 -5.956399 -6.781897 -7.643358 -6.640100 -6.401114 -7.076010 -6.493261 -6.619589 -7.140456 -6.622213 -7.671659 -8.220317 -7.512512 -9.169564 -9.834753 -9.051840
42.400000 -5.943396 -6.744833 -7.606328 -6.615349 -6.388782 -7.053276 -6.478178 -6.607258 -7.122819 -6.612276 -7.659321 -8.203667 -7.498424 -9.157229 -9.819059 -9.039619
42.440000 -5.930322 -6.704546 -7.569639 -6.579797 -6.373574 -7.025977 -6.446971 -6.594380 -7.104544 -6.601983 -7.646446 -8.185984 -7.483695 -9.144352 -9.802475 -9.026864
42.480000 -5.917631 -6.667682 -7.535809 -6.544987 -6.358881 -7.003386 -6.414866 -6.581874 -7.088097 -6.591052 -7.633942 -8.168993 -7.469542 -9.131845 -9.786499 -9.014473
42.520000 -5.903013 -6.634993 -7.501157 -6.510895 -6.340417 -6.978937 -6.382699 -6.569264 -7.071468 -6.578051 -7.621333 -8.150780 -7.455254 -9.119236 -9.770354 -9.001982
42.560000 -5.886669 -6.605799 -7.466052 -6.477567 -6.318664 -6.952988 -6.358613 -6.556568 -7.054702 -6.564980 -7.608639 -8.132149 -7.440857 -9.106543 -9.754077 -8.989408
42.600000 -5.870918 -6.578444 -7.433575 -6.446741 -6.297948 -6.928503 -6.336282 -6.544233 -7.038560 -6.552297 -7.596305 -8.114287 -7.426923 -9.094210 -9.738389 -8.977188
42.640000 -5.851248 -6.552377 -7.399672 -6.419338 -6.270608 -6.898445 -6.302613 -6.531356 -7.020821 -6.539032 -7.583426 -8.095240 -7.412295 -9.081332 -9.721801 -8.964433
42.680000 -5.832430 -6.527786 -7.372698 -6.393587 -6.244888 -6.870334 -6.271014 -6.518849 -7.003759 -6.526160 -7.570918 -8.076994 -7.398144 -9.068825 -9.705824 -8.952041
42.720000 -5.812476 -6.502897 -7.346366 -6.367420 -6.217240 -6.839830 -6.242559 -6.506241 -6.986502 -6.513182 -7.558308 -8.058532 -7.383857 -9.056216 -9.689676 -8.939550
42.760000 -5.791569 -6.477832 -7.319740 -6.340998 -6.188099 -6.809797 -6.213364 -6.493548 -6.969875 -6.498827 -7.545617 -8.039909 -7.369460 -9.043523 -9.673398 -8.926978
42.800000 -5.771623 -6.454135 -7.294651 -6.316110 -6.160792 -6.781796 -6.186027 -6.481216 -6.955854 -6.483866 -7.533286 -8.022731 -7.355528 -9.031191 -9.657708 -8.914760
42.840000 -5.748361 -6.428674 -7.267248 -6.286404 -6.128345 -6.749391 -6.153391 -6.468336 -6.941134 -6.471194 -7.520404 -8.008304 -7.340894 -9.018310 -9.641120 -8.900825
42.880000 -5.726283 -6.404623 -7.241472 -6.253220 -6.098154 -6.719236 -6.123672 -6.455827 -6.927692 -6.458882 -7.507893 -7.994343 -7.326306 -9.005799 -9.624844 -8.888329
42.920000 -5.702898 -6.380471 -7.215270 -6.219672 -6.067043 -6.686824 -6.086885 -6.443218 -6.914133 -6.446472 -7.495285 -7.980253 -7.310548 -8.993191 -9.608175 -8.875745
42.960000 -5.678463 -6.356304 -7.188800 -6.186017 -6.035333 -6.652766 -6.048847 -6.430526 -6.900479 -6.433984 -7.482598 -7.966062 -7.294663 -8.980502 -9.591366 -8.863082
43.000000 -5.655331 -6.333411 -7.163850 -6.156272 -6.005781 -6.621187 -6.013887 -6.418195 -6.887242 -6.421845 -7.470272 -7.952747 -7.279345 -8.968174 -9.575186 -8.850732
43.040000 -5.628746 -6.309442 -7.135996 -6.124361 -5.971675 -6.582925 -5.974733 -6.405315 -6.872134 -6.409171 -7.457385 -7.938876 -7.263162 -8.955290 -9.558041 -8.837546
43.080000 -5.603695 -6.286726 -7.106910 -6.094686 -5.940054 -6.547224 -5.938824 -6.392805 -6.855019 -6.396777 -7.444871 -7.925435 -7.247567 -8.942777 -9.541549 -8.824751
43.120000 -5.578006 -6.264309 -7.077294 -6.069482 -5.906465 -6.502587 -5.905780 -6.380197 -6.836782 -6.383991 -7.432260 -7.911876 -7.231809 -8.930167 -9.524880 -8.811854
43.160000 -5.551866 -6.242203 -7.047373 -6.043318 -5.871492 -6.456729 -5.867142 -6.367508 -6.817603 -6.369753 -7.419573 -7.898223 -7.215926 -8.917478 -9.508078 -8.798872
43.200000 -5.527209 -6.221167 -7.019385 -6.014621 -5.839127 -6.415253 -5.831372 -6.355180 -6.799236 -6.355957 -7.407246 -7.884986 -7.200609 -8.905150 -9.491903 -8.786270
43.240000 -5.499402 -6.200027 -6.986122 -5.980696 -5.802863 -6.372316 -5.793097 -6.342296 -6.764180 -6.340976 -7.394364 -7.871114 -7.187529 -8.892268 -9.474755 -8.773088
43.280000 -5.473269 -6.179868 -6.949243 -5.936466 -5.769395 -6.333245 -5.758037 -6.329783 -6.743368 -6.323878 -7.381852 -7.857671 -7.174876 -8.879757 -9.458260 -8.760296
43.320000 -5.446706 -6.159816 -6.901766 -5.909614 -5.735570 -6.296907 -5.722608 -6.317174 -6.717221 -6.297724 -7.369242 -7.840590 -7.162122 -8.867147 -9.441588 -8.747398
43.360000 -5.419876 -6.139895 -6.850623 -5.883287 -5.701647 -6.262919 -5.687096 -6.304485 -6.684840 -6.264502 -7.356551 -7.822253 -7.149286 -8.854458 -9.424783 -8.734546
43.400000 -5.394608 -6.120849 -6.805017 -5.860282 -5.670183 -6.231400 -5.654272 -6.292157 -6.658180 -6.235847 -7.344220 -7.804667 -7.136824 -8.842129 -9.408607 -8.721136
43.440000 -5.367940 -6.099861 -6.751610 -5.831811 -5.638533 -6.196555 -5.618888 -6.270493 -6.629848 -6.206668 -7.331341 -7.785927 -7.123008 -8.829248 -9.391464 -8.706171
43.480000 -5.342815 -6.079841 -6.722528 -5.804229 -5.609034 -6.166112 -5.586172 -6.249858 -6.590143 -6.170514 -7.318832 -7.767971 -7.108936 -8.816738 -9.374974 -8.691709
43.520000 -5.318122 -6.058322 -6.693907 -5.774232 -5.582272 -6.141730 -5.553835 -6.218660 -6.548846 -6.132485 -7.306222 -7.749794 -7.094738 -8.804127 -9.356900 -8.677102
43.560000 -5.293867 -6.035560 -6.660838 -5.742352 -5.557877 -6.117816 -5.521965 -6.179067 -6.514500 -6.090979 -7.293528 -7.731452 -7.080441 -8.791433 -9.338376 -8.662379
43.600000 -5.270895 -6.013932 -6.628844 -5.706300 -5.534781 -6.098586 -5.492281 -6.142784 -6.475497 -6.051653 -7.281195 -7.713861 -7.065841 -8.779101 -9.320612 -8.648145
43.640000 -5.247694 -5.984214 -6.581870 -5.675773 -5.513588 -6.072281 -5.464531 -6.098431 -6.432429 -6.015478 -7.268320 -7.695128 -7.049726 -8.766224 -9.301676 -8.633865
43.680000 -5.225669 -5.956400 -6.521894 -5.641669 -5.493381 -6.050067 -5.445799 -6.058191 -6.393250 -5.976431 -7.255816 -7.677178 -7.035773 -8.753719 -9.283534 -8.622325
43.720000 -5.204571 -5.924451 -6.467945 -5.592788 -5.474463 -6.025789 -5.430219 -6.018857 -6.348938 -5.936119 -7.243205 -7.659001 -7.023391 -8.741109 -9.265172 -8.608945
43.760000 -5.184321 -5.889336 -6.404505 -5.543964 -5.456711 -6.002266 -5.410560 -5.980497 -6.311052 -5.903827 -7.230508 -7.640235 -7.010603 -8.728412 -9.246648 -8.594233
43.800000 -5.164973 -5.856849 -6.323542 -5.502943 -5.439655 -5.979024 -5.388500 -5.945251 -6.277139 -5.869381 -7.218170 -7.622734 -6.999162 -8.716077 -9.231245 -8.580004
43.840000 -5.146916 -5.823692 -6.229479 -5.483500 -5.424948 -5.946308 -5.367595 -5.909814 -6.235997 -5.829845 -7.205295 -7.605055 -6.987246 -8.703200 -9.215806 -8.565037
43.880000 -5.129579 -5.792888 -6.159602 -5.465709 -5.410722 -5.922480 -5.348526 -5.877051 -6.200225 -5.793247 -7.192791 -7.588070 -6.975652 -8.690694 -9.200726 -8.550569
43.920000 -5.113576 -5.764658 -6.103009 -5.457319 -5.398278 -5.895994 -5.331513 -5.844439 -6.163633 -5.756364 -7.180182 -7.570895 -6.963968 -8.678085 -9.185262 -8.535964
43.960000 -5.098787 -5.738652 -6.054895 -5.455299 -5.387478 -5.869921 -5.318943 -5.812111 -6.126933 -5.719896 -7.167488 -7.553579 -6.952389 -8.665391 -9.169680 -8.521253
44.000000 -5.084485 -5.714115 -6.018374 -5.457212 -5.376940 -5.845341 -5.308412 -5.782024 -6.092973 -5.686255 -7.155155 -7.536927 -6.941404 -8.653058 -9.154641 -8.507023
44.040000 -5.072760 -5.704210 -5.992703 -5.470503 -5.369984 -5.821138 -5.303196 -5.749446 -6.057380 -5.650039 -7.142276 -7.519255 -6.929064 -8.640180 -9.136284 -8.492052
44.080000 -5.061343 -5.694525 -5.972317 -5.483505 -5.363138 -5.799884 -5.298044 -5.719142 -6.026636 -5.617316 -7.129768 -7.502274 -6.915417 -8.627673 -9.118304 -8.477581
44.120000 -5.051435 -5.691242 -5.952767 -5.499269 -5.358499 -5.784659 -5.285524 -5.689159 -5.995705 -5.585360 -7.117159 -7.485099 -6.901644 -8.615064 -9.100103 -8.462976
44.160000 -5.042941 -5.694218 -5.933941 -5.510273 -5.355999 -5.770837 -5.259188 -5.659567 -5.965009 -5.555000 -7.104468 -7.472146 -6.890794 -8.602372 -9.081738 -8.448266
44.200000 -5.034611 -5.697215 -5.922580 -5.519811 -5.353513 -5.756848 -5.249528 -5.631864 -5.940021 -5.530163 -7.092137 -7.460744 -6.882058 -8.590040 -9.064122 -8.434038
44.240000 -5.029500 -5.711517 -5.920660 -5.546223 -5.355841 -5.745040 -5.251191 -5.603118 -5.913758 -5.505337 -7.079256 -7.448840 -6.862734 -8.577158 -9.045340 -8.419337
44.280000 -5.024448 -5.726306 -5.919910 -5.584161 -5.358183 -5.733564 -5.245821 -5.576157 -5.889000 -5.481906 -7.066745 -7.437276 -6.844463 -8.564647 -9.026737 -8.404600
44.320000 -5.021290 -5.747550 -5.950666 -5.612090 -5.362539 -5.723358 -5.237344 -5.549896 -5.865537 -5.460309 -7.054138 -7.407622 -6.829367 -8.552039 -9.007886 -8.388917
44.360000 -5.019983 -5.776221 -5.954754 -5.652477 -5.368971 -5.708259 -5.233091 -5.524305 -5.843939 -5.435612 -7.041452 -7.357215 -6.797858 -8.539351 -8.988851 -8.373106
44.400000 -5.018680 -5.806921 -5.964309 -5.692520 -5.375501 -5.682788 -5.258336 -5.500138 -5.818702 -5.406135 -7.029125 -7.323356 -6.759936 -8.527023 -8.970616 -8.359223
44.440000 -5.021046 -5.849314 -6.005732 -5.744269 -5.387122 -5.679597 -5.273680 -5.477662 -5.792177 -5.379604 -7.001916 -7.276842 -6.703006 -8.514138 -8.951181 -8.346680
