#Bolometric quasar luminosity functions from TRINITY Paper III (Fig. 2, Zhang+2024, MNRAS, 529, 2777)
#z: 1.0
#log10(Lbol [erg/s]) log10(QLF [Mpc^-3 dex^-1]) log10(QLF_16th [Mpc^-3 dex^-1]) log10(QLF_84th [Mpc^-3 dex^-1])
40.000000 -3.847886 -3.994981 -3.805160
40.040000 -3.841991 -3.986021 -3.799925
40.080000 -3.836175 -3.977740 -3.791621
40.120000 -3.830348 -3.969748 -3.783576
40.160000 -3.824512 -3.961659 -3.779431
40.200000 -3.818754 -3.953673 -3.775344
40.240000 -3.812911 -3.944410 -3.771174
40.280000 -3.807146 -3.935652 -3.767044
40.320000 -3.801326 -3.926677 -3.762432
40.360000 -3.795453 -3.917326 -3.756963
40.400000 -3.789658 -3.909273 -3.746625
40.440000 -3.783588 -3.901907 -3.740306
40.480000 -3.777602 -3.894223 -3.737445
40.520000 -3.771494 -3.885011 -3.733606
40.560000 -3.765273 -3.874863 -3.726838
40.600000 -3.759138 -3.864837 -3.719416
40.640000 -3.752619 -3.853991 -3.714071
40.680000 -3.746196 -3.844678 -3.707654
40.720000 -3.739632 -3.837034 -3.701353
40.760000 -3.732933 -3.829717 -3.692984
40.800000 -3.726337 -3.821897 -3.686881
40.840000 -3.719691 -3.814403 -3.682266
40.880000 -3.713145 -3.805503 -3.678146
40.920000 -3.706945 -3.797585 -3.674193
40.960000 -3.701079 -3.791762 -3.668627
41.000000 -3.695291 -3.786002 -3.663054
41.040000 -3.690368 -3.780335 -3.658028
41.080000 -3.685501 -3.774715 -3.652839
41.120000 -3.680905 -3.768573 -3.647757
41.160000 -3.676571 -3.761369 -3.642777
41.200000 -3.672280 -3.754257 -3.637855
41.240000 -3.668189 -3.746974 -3.632986
41.280000 -3.664136 -3.739811 -3.628172
41.320000 -3.660189 -3.734195 -3.623416
41.360000 -3.656346 -3.729641 -3.618869
41.400000 -3.652536 -3.724919 -3.615017
41.440000 -3.648918 -3.720104 -3.610556
41.480000 -3.645329 -3.714707 -3.607181
41.520000 -3.641875 -3.709111 -3.604322
41.560000 -3.638552 -3.703638 -3.601105
41.600000 -3.635255 -3.698067 -3.597824
41.640000 -3.632229 -3.692315 -3.594667
41.680000 -3.629224 -3.686598 -3.591532
41.720000 -3.626357 -3.682091 -3.588477
41.760000 -3.623625 -3.677054 -3.585019
41.800000 -3.620910 -3.671934 -3.582624
41.840000 -3.618442 -3.667001 -3.579899
41.880000 -3.615987 -3.663643 -3.577191
41.920000 -3.613691 -3.661478 -3.574602
41.960000 -3.611550 -3.657530 -3.572281
42.000000 -3.609421 -3.654170 -3.569974
42.040000 -3.607643 -3.651152 -3.567919
42.080000 -3.605873 -3.648909 -3.565874
42.120000 -3.604277 -3.647249 -3.563956
42.160000 -3.602854 -3.645788 -3.562258
42.200000 -3.601435 -3.644332 -3.560469
42.240000 -3.600345 -3.642755 -3.559017
42.280000 -3.599258 -3.640652 -3.557449
42.320000 -3.598345 -3.638860 -3.554723
42.360000 -3.597605 -3.636810 -3.553252
42.400000 -3.596867 -3.635062 -3.551360
42.440000 -3.596483 -3.633729 -3.549464
42.480000 -3.596099 -3.632265 -3.547642
42.520000 -3.595886 -3.631937 -3.546021
42.560000 -3.595845 -3.631135 -3.544737
42.600000 -3.595803 -3.631995 -3.543827
42.640000 -3.596093 -3.633107 -3.543897
42.680000 -3.596384 -3.634220 -3.543170
42.720000 -3.596839 -3.635129 -3.542574
42.760000 -3.597458 -3.634531 -3.543068
42.800000 -3.598078 -3.633092 -3.543564
42.840000 -3.599099 -3.631931 -3.544341
42.880000 -3.600123 -3.631531 -3.545131
42.920000 -3.601335 -3.632342 -3.545752
42.960000 -3.602736 -3.632423 -3.545789
43.000000 -3.604142 -3.632505 -3.545645
43.040000 -3.605711 -3.632745 -3.545814
43.080000 -3.607285 -3.633881 -3.546153
43.120000 -3.608975 -3.635435 -3.547520
43.160000 -3.610783 -3.637263 -3.549352
43.200000 -3.612598 -3.638128 -3.551282
43.240000 -3.614656 -3.639170 -3.551987
43.280000 -3.616723 -3.640216 -3.553178
43.320000 -3.618910 -3.641362 -3.555268
43.360000 -3.621218 -3.642609 -3.557652
43.400000 -3.623538 -3.643862 -3.560162
43.440000 -3.626091 -3.645365 -3.562348
43.480000 -3.628659 -3.646875 -3.564217
43.520000 -3.631360 -3.648454 -3.566378
43.560000 -3.634198 -3.650322 -3.568814
43.600000 -3.637054 -3.652541 -3.570822
43.640000 -3.640228 -3.655361 -3.573477
43.680000 -3.643426 -3.658960 -3.576977
43.720000 -3.646932 -3.662960 -3.579944
43.760000 -3.650756 -3.667335 -3.583240
43.800000 -3.654613 -3.671664 -3.586821
43.840000 -3.658869 -3.676424 -3.590830
43.880000 -3.663167 -3.681237 -3.594955
43.920000 -3.667765 -3.686482 -3.599752
43.960000 -3.672672 -3.692174 -3.605604
44.000000 -3.677635 -3.697924 -3.612094
44.040000 -3.683332 -3.702503 -3.619886
44.080000 -3.689104 -3.706785 -3.627820
44.120000 -3.695452 -3.711541 -3.634440
44.160000 -3.702401 -3.717673 -3.642892
44.200000 -3.709463 -3.724418 -3.652637
44.240000 -3.717638 -3.733585 -3.663920
44.280000 -3.725971 -3.743369 -3.673768
44.320000 -3.735132 -3.753769 -3.684751
44.360000 -3.745174 -3.764861 -3.697409
44.400000 -3.755452 -3.777085 -3.710614
44.440000 -3.767396 -3.791958 -3.722678
44.480000 -3.779678 -3.806107 -3.736024
44.520000 -3.793008 -3.820867 -3.751563
44.560000 -3.807474 -3.836700 -3.768366
44.600000 -3.822439 -3.854615 -3.783559
44.640000 -3.839282 -3.873391 -3.799904
44.680000 -3.856805 -3.893449 -3.817100
44.720000 -3.875512 -3.914234 -3.835808
44.760000 -3.895528 -3.937663 -3.856264
44.800000 -3.916513 -3.963163 -3.878971
44.840000 -3.938846 -3.989085 -3.903115
44.880000 -3.962390 -4.015591 -3.928258
44.920000 -3.987022 -4.041203 -3.952435
44.960000 -4.012857 -4.068365 -3.979515
45.000000 -4.040328 -4.099191 -4.008818
45.040000 -4.068172 -4.126879 -4.035926
45.080000 -4.097924 -4.157404 -4.064122
45.120000 -4.128462 -4.189337 -4.094806
45.160000 -4.159802 -4.220618 -4.125454
45.200000 -4.193580 -4.256653 -4.159414
45.240000 -4.226306 -4.290238 -4.192806
45.280000 -4.261701 -4.326266 -4.228829
45.320000 -4.297641 -4.362657 -4.262589
45.360000 -4.334001 -4.399357 -4.297895
45.400000 -4.373686 -4.439448 -4.337910
45.440000 -4.410592 -4.477055 -4.375634
45.480000 -4.450929 -4.519046 -4.417500
45.520000 -4.491542 -4.560074 -4.458448
45.560000 -4.532110 -4.600492 -4.499212
45.600000 -4.576862 -4.644080 -4.544818
45.640000 -4.617227 -4.683195 -4.585936
45.680000 -4.661731 -4.725433 -4.629227
45.720000 -4.706161 -4.767400 -4.671506
45.760000 -4.749948 -4.811495 -4.713349
45.800000 -4.798650 -4.858710 -4.759656
45.840000 -4.841565 -4.899967 -4.800672
45.880000 -4.889192 -4.948699 -4.845970
45.920000 -4.936567 -4.994604 -4.891501
45.960000 -4.982931 -5.040309 -4.936908
46.000000 -5.034841 -5.090428 -4.988246
46.040000 -5.079875 -5.133680 -5.032293
46.080000 -5.130124 -5.182061 -5.081769
46.120000 -5.180027 -5.230386 -5.131389
46.160000 -5.228662 -5.277147 -5.179552
46.200000 -5.283438 -5.331803 -5.233729
46.240000 -5.330535 -5.376777 -5.280393
46.280000 -5.383368 -5.427254 -5.332681
46.320000 -5.435839 -5.480759 -5.384200
46.360000 -5.486871 -5.532674 -5.434123
46.400000 -5.544709 -5.591463 -5.490108
46.440000 -5.594096 -5.639158 -5.538505
46.480000 -5.649829 -5.693870 -5.593189
46.520000 -5.705241 -5.748991 -5.647254
46.560000 -5.759091 -5.801523 -5.699969
46.600000 -5.820577 -5.860992 -5.760820
46.640000 -5.872779 -5.912037 -5.811288
46.680000 -5.932123 -5.970846 -5.867973
46.720000 -5.991291 -6.030396 -5.923773
46.760000 -6.048846 -6.088773 -5.980071
46.800000 -6.115211 -6.155650 -6.045552
46.840000 -6.171149 -6.211879 -6.101025
46.880000 -6.235373 -6.276226 -6.164119
46.920000 -6.299536 -6.339769 -6.226769
46.960000 -6.361858 -6.401590 -6.286667
47.000000 -6.434646 -6.475976 -6.356925
47.040000 -6.495120 -6.537929 -6.416861
47.080000 -6.565398 -6.609716 -6.485827
47.120000 -6.635707 -6.680712 -6.554001
47.160000 -6.703715 -6.748801 -6.620342
47.200000 -6.784387 -6.830972 -6.699005
47.240000 -6.850211 -6.897870 -6.764241
47.280000 -6.927825 -6.979105 -6.839744
47.320000 -7.005538 -7.061444 -6.916476
47.360000 -7.080165 -7.137404 -6.988974
47.400000 -7.170332 -7.227893 -7.078221
47.440000 -7.242054 -7.299728 -7.148520
47.480000 -7.328010 -7.385845 -7.234614
47.520000 -7.414138 -7.472753 -7.319561
47.560000 -7.496015 -7.556412 -7.402904
47.600000 -7.597002 -7.659668 -7.499255
47.640000 -7.674877 -7.736325 -7.574763
47.680000 -7.769836 -7.832946 -7.666550
47.720000 -7.865125 -7.931374 -7.761491
47.760000 -7.954675 -8.024175 -7.851560
47.800000 -8.067620 -8.141014 -7.967573
47.840000 -8.152109 -8.227287 -8.052950
47.880000 -8.257106 -8.336853 -8.154000
47.920000 -8.362642 -8.446857 -8.258525
47.960000 -8.460328 -8.548010 -8.355842
48.000000 -8.586563 -8.682097 -8.481975
48.040000 -8.677473 -8.778582 -8.572300
48.080000 -8.792591 -8.899498 -8.683311
48.120000 -8.908450 -9.020163 -8.796441
48.160000 -9.013673 -9.127121 -8.898922
48.200000 -9.152831 -9.271855 -9.034049
48.240000 -9.249348 -9.375191 -9.129063
48.280000 -9.373632 -9.507860 -9.250533
48.320000 -9.499146 -9.640974 -9.376015
48.360000 -9.611441 -9.758955 -9.486711
48.400000 -9.763300 -9.920199 -9.631795
48.440000 -9.865695 -10.027943 -9.734481
48.480000 -9.999932 -10.169927 -9.869336
48.520000 -10.136213 -10.317993 -10.007033
48.560000 -10.256277 -10.445230 -10.127226
48.600000 -10.422781 -10.628382 -10.295159
48.640000 -10.531116 -10.743448 -10.402885
48.680000 -10.675792 -10.900321 -10.543515
48.720000 -10.823378 -11.062819 -10.684230
48.760000 -10.950695 -11.200427 -10.808722
48.800000 -11.131582 -11.403022 -10.983312
48.840000 -11.244961 -11.525003 -11.095381
48.880000 -11.398817 -11.700816 -11.242299
48.920000 -11.556713 -11.883533 -11.392129
48.960000 -11.690642 -12.027108 -11.524691
49.000000 -11.885293 -12.247727 -11.706903
49.040000 -12.004152 -12.376944 -11.821557
49.080000 -12.168333 -12.553060 -11.979031
49.120000 -12.338463 -12.737570 -12.145166
49.160000 -12.480747 -12.885767 -12.284872
49.200000 -12.693757 -13.116356 -12.492099
49.240000 -12.819241 -13.250854 -12.615324
49.280000 -12.996425 -13.442168 -12.788010
49.320000 -13.182088 -13.645361 -12.968260
49.360000 -13.333491 -13.806534 -13.116627
49.400000 -13.567904 -14.066859 -13.346192
49.440000 -13.700025 -14.208518 -13.477645
49.480000 -13.890847 -14.420121 -13.671182
49.520000 -14.093691 -14.663673 -13.879989
49.560000 -14.255093 -14.836532 -14.041101
49.600000 -14.514821 -15.128274 -14.300019
