#Bolometric quasar luminosity functions from TRINITY Paper III (Fig. 2, Zhang+2024, MNRAS, 529, 2777)
#z: 0.5
#log10(Lbol [erg/s]) log10(QLF [Mpc^-3 dex^-1]) log10(QLF_16th [Mpc^-3 dex^-1]) log10(QLF_84th [Mpc^-3 dex^-1])
40.000000 -3.485297 -3.568600 -3.373959
40.040000 -3.481638 -3.563961 -3.371834
40.080000 -3.478009 -3.560041 -3.369720
40.120000 -3.474519 -3.556024 -3.367890
40.160000 -3.471164 -3.553219 -3.366209
40.200000 -3.467835 -3.548019 -3.364536
40.240000 -3.464681 -3.543873 -3.362844
40.280000 -3.461549 -3.539766 -3.362014
40.320000 -3.458322 -3.535592 -3.361143
40.360000 -3.455003 -3.531324 -3.360037
40.400000 -3.451708 -3.527007 -3.358933
40.440000 -3.448403 -3.523088 -3.356498
40.480000 -3.445123 -3.519204 -3.352994
40.520000 -3.442027 -3.515620 -3.352019
40.560000 -3.439112 -3.512107 -3.351577
40.600000 -3.436216 -3.509185 -3.351136
40.640000 -3.434005 -3.506747 -3.350772
40.680000 -3.431805 -3.504269 -3.350610
40.720000 -3.430005 -3.502750 -3.351284
40.760000 -3.428600 -3.501364 -3.352192
40.800000 -3.427200 -3.499935 -3.352419
40.840000 -3.426367 -3.498889 -3.352604
40.880000 -3.425535 -3.498733 -3.353283
40.920000 -3.424897 -3.497698 -3.353342
40.960000 -3.424453 -3.496755 -3.352224
41.000000 -3.424009 -3.495936 -3.354924
41.040000 -3.423775 -3.495345 -3.357070
41.080000 -3.423541 -3.494520 -3.358396
41.120000 -3.423361 -3.493367 -3.359805
41.160000 -3.423233 -3.492896 -3.359898
41.200000 -3.423106 -3.492312 -3.361073
41.240000 -3.423049 -3.491506 -3.362646
41.280000 -3.422993 -3.491684 -3.364407
41.320000 -3.422958 -3.493585 -3.364982
41.360000 -3.422945 -3.494251 -3.365124
41.400000 -3.422932 -3.494386 -3.365265
41.440000 -3.423016 -3.495625 -3.365499
41.480000 -3.423100 -3.496753 -3.365732
41.520000 -3.423252 -3.497658 -3.365164
41.560000 -3.423471 -3.498601 -3.363810
41.600000 -3.423690 -3.498423 -3.364482
41.640000 -3.424110 -3.497383 -3.366124
41.680000 -3.424531 -3.497114 -3.367682
41.720000 -3.425061 -3.495163 -3.370079
41.760000 -3.425703 -3.492482 -3.372102
41.800000 -3.426345 -3.489821 -3.371327
41.840000 -3.427173 -3.491452 -3.372461
41.880000 -3.428003 -3.493399 -3.374010
41.920000 -3.428949 -3.495290 -3.375638
41.960000 -3.430013 -3.496020 -3.377347
42.000000 -3.431079 -3.494309 -3.379157
42.040000 -3.432408 -3.495687 -3.380930
42.080000 -3.433740 -3.497040 -3.382422
42.120000 -3.435197 -3.498481 -3.384158
42.160000 -3.436780 -3.500037 -3.385997
42.200000 -3.438368 -3.501598 -3.387700
42.240000 -3.440216 -3.503390 -3.388362
42.280000 -3.442072 -3.506136 -3.390083
42.320000 -3.444087 -3.510280 -3.391233
42.360000 -3.446263 -3.513568 -3.391831
42.400000 -3.448450 -3.515890 -3.393558
42.440000 -3.451010 -3.518464 -3.394000
42.480000 -3.453586 -3.520834 -3.397529
42.520000 -3.456408 -3.523119 -3.401672
42.560000 -3.459481 -3.525565 -3.404367
42.600000 -3.462576 -3.528025 -3.407258
42.640000 -3.465980 -3.530823 -3.410606
42.680000 -3.469410 -3.533640 -3.413980
42.720000 -3.472971 -3.536645 -3.417503
42.760000 -3.476666 -3.539840 -3.421178
42.800000 -3.480393 -3.543061 -3.424885
42.840000 -3.484458 -3.546687 -3.428903
42.880000 -3.488561 -3.550344 -3.432959
42.920000 -3.492862 -3.554206 -3.437323
42.960000 -3.497365 -3.558277 -3.441524
43.000000 -3.501915 -3.563563 -3.446070
43.040000 -3.506843 -3.568256 -3.451441
43.080000 -3.511826 -3.572076 -3.456880
43.120000 -3.517018 -3.576175 -3.462562
43.160000 -3.522425 -3.581223 -3.468496
43.200000 -3.527900 -3.585796 -3.474513
43.240000 -3.533757 -3.590812 -3.480956
43.280000 -3.539693 -3.596512 -3.487497
43.320000 -3.545901 -3.602054 -3.493769
43.360000 -3.552389 -3.607420 -3.499281
43.400000 -3.558975 -3.614276 -3.505240
43.440000 -3.566100 -3.621539 -3.513593
43.480000 -3.573343 -3.628407 -3.520478
43.520000 -3.580890 -3.635422 -3.528635
43.560000 -3.588753 -3.642523 -3.537681
43.600000 -3.596762 -3.649742 -3.546661
43.640000 -3.605077 -3.657310 -3.555250
43.680000 -3.613555 -3.665011 -3.564412
43.720000 -3.622374 -3.673018 -3.574523
43.760000 -3.631554 -3.681876 -3.584321
43.800000 -3.640931 -3.692071 -3.593923
43.840000 -3.651204 -3.702144 -3.604356
43.880000 -3.661726 -3.711133 -3.614778
43.920000 -3.672795 -3.725003 -3.626651
43.960000 -3.684449 -3.735788 -3.639300
44.000000 -3.696424 -3.748245 -3.653615
44.040000 -3.709101 -3.761126 -3.670213
44.080000 -3.722160 -3.775417 -3.683205
44.120000 -3.736024 -3.790952 -3.697127
44.160000 -3.750761 -3.806444 -3.713697
44.200000 -3.766016 -3.821902 -3.730747
44.240000 -3.782594 -3.837988 -3.748065
44.280000 -3.799831 -3.852290 -3.765728
44.320000 -3.817937 -3.868114 -3.781907
44.360000 -3.836995 -3.886914 -3.803513
44.400000 -3.856927 -3.906564 -3.826163
44.440000 -3.878124 -3.926545 -3.847951
44.480000 -3.900408 -3.949135 -3.868837
44.520000 -3.923710 -3.971070 -3.894942
44.560000 -3.948136 -3.994503 -3.916643
44.600000 -3.974017 -4.023611 -3.940639
44.640000 -4.000609 -4.053263 -3.968253
44.680000 -4.028937 -4.083988 -3.997544
44.720000 -4.058378 -4.114582 -4.023501
44.760000 -4.089032 -4.147543 -4.052455
44.800000 -4.122016 -4.183317 -4.087593
44.840000 -4.154619 -4.217702 -4.120613
44.880000 -4.189870 -4.255451 -4.154340
44.920000 -4.225984 -4.291619 -4.189032
44.960000 -4.262921 -4.331198 -4.223789
45.000000 -4.303295 -4.375122 -4.262314
45.040000 -4.341626 -4.414964 -4.299342
45.080000 -4.383670 -4.458835 -4.339827
45.120000 -4.426367 -4.503108 -4.380840
45.160000 -4.469464 -4.547252 -4.424353
45.200000 -4.517312 -4.596365 -4.468183
45.240000 -4.560873 -4.640329 -4.510061
45.280000 -4.609296 -4.689251 -4.555567
45.320000 -4.658042 -4.738272 -4.600265
45.360000 -4.706516 -4.786472 -4.645029
45.400000 -4.761087 -4.843531 -4.695650
45.440000 -4.809001 -4.891830 -4.740956
45.480000 -4.862865 -4.945970 -4.791891
45.520000 -4.916706 -5.001579 -4.844826
45.560000 -4.969518 -5.055583 -4.897170
45.600000 -5.029653 -5.115191 -4.956766
45.640000 -5.081059 -5.164437 -5.007779
45.680000 -5.139379 -5.219992 -5.065592
45.720000 -5.197430 -5.275117 -5.122218
45.760000 -5.253813 -5.328311 -5.177895
45.800000 -5.318624 -5.390032 -5.242448
45.840000 -5.372868 -5.443321 -5.295999
45.880000 -5.434868 -5.503226 -5.358075
45.920000 -5.496366 -5.563468 -5.420451
45.960000 -5.555574 -5.618993 -5.479872
46.000000 -5.624148 -5.684151 -5.547951
46.040000 -5.680710 -5.739482 -5.603103
46.080000 -5.745758 -5.803053 -5.666438
46.120000 -5.810190 -5.866466 -5.731742
46.160000 -5.871892 -5.928620 -5.791832
46.200000 -5.943836 -5.997393 -5.863154
46.240000 -6.002500 -6.055167 -5.920006
46.280000 -6.070344 -6.121920 -5.985438
46.320000 -6.137563 -6.188350 -6.050281
46.360000 -6.201760 -6.250954 -6.113280
46.400000 -6.277121 -6.324856 -6.184882
46.440000 -6.338100 -6.384393 -6.243567
46.480000 -6.409060 -6.452970 -6.312310
46.520000 -6.479469 -6.522057 -6.378791
46.560000 -6.546623 -6.589926 -6.443355
46.600000 -6.626095 -6.669473 -6.522290
46.640000 -6.689837 -6.733027 -6.583247
46.680000 -6.764570 -6.807815 -6.655656
46.720000 -6.838785 -6.881948 -6.728779
46.760000 -6.909336 -6.953470 -6.797801
46.800000 -6.993614 -7.038982 -6.879830
46.840000 -7.060421 -7.106761 -6.945824
46.880000 -7.139406 -7.185042 -7.024183
46.920000 -7.217920 -7.262622 -7.102243
46.960000 -7.292262 -7.336179 -7.174880
47.000000 -7.382014 -7.424894 -7.262787
47.040000 -7.452293 -7.496434 -7.331674
47.080000 -7.536182 -7.586832 -7.416107
47.120000 -7.619684 -7.674152 -7.499298
47.160000 -7.698386 -7.750689 -7.576259
47.200000 -7.794577 -7.849465 -7.669840
47.240000 -7.868598 -7.926703 -7.743767
47.280000 -7.957882 -8.017722 -7.832270
47.320000 -8.046752 -8.113595 -7.919416
47.360000 -8.129810 -8.204046 -8.001244
47.400000 -8.232602 -8.315778 -8.101915
47.440000 -8.310014 -8.397288 -8.178705
47.480000 -8.404283 -8.496854 -8.271022
47.520000 -8.498006 -8.600046 -8.367224
47.560000 -8.584675 -8.693659 -8.452729
47.600000 -8.693065 -8.809477 -8.564600
47.640000 -8.773136 -8.895222 -8.646237
47.680000 -8.871385 -9.000431 -8.746439
47.720000 -8.969122 -9.102892 -8.842977
47.760000 -9.058942 -9.197504 -8.931206
47.800000 -9.172316 -9.318120 -9.044972
47.840000 -9.254943 -9.406626 -9.129785
47.880000 -9.357074 -9.514219 -9.234996
47.920000 -9.458796 -9.620231 -9.337869
47.960000 -9.551796 -9.714183 -9.430340
48.000000 -9.670294 -9.830757 -9.551446
48.040000 -9.755759 -9.920564 -9.638751
48.080000 -9.862268 -10.031134 -9.747884
48.120000 -9.968620 -10.142402 -9.859497
48.160000 -10.065474 -10.247549 -9.961536
48.200000 -10.190319 -10.388344 -10.089042
48.240000 -10.279362 -10.484874 -10.178257
48.280000 -10.391496 -10.608889 -10.291895
48.320000 -10.503973 -10.732840 -10.402401
48.360000 -10.606099 -10.840923 -10.502283
48.400000 -10.739872 -10.980612 -10.632620
48.440000 -10.833880 -11.082407 -10.724052
48.480000 -10.954024 -11.218916 -10.840013
48.520000 -11.075204 -11.359153 -10.956277
48.560000 -11.184457 -11.477301 -11.060816
48.600000 -11.330782 -11.643142 -11.202440
48.640000 -11.431009 -11.749256 -11.301578
48.680000 -11.561534 -11.889986 -11.431358
48.720000 -11.693970 -12.044444 -11.563129
48.760000 -11.811731 -12.167997 -11.676253
48.800000 -11.973814 -12.340015 -11.846384
48.840000 -12.081061 -12.451970 -11.955025
48.880000 -12.223793 -12.606432 -12.101590
48.920000 -12.369691 -12.766375 -12.247148
48.960000 -12.496995 -12.903653 -12.375248
49.000000 -12.677855 -13.108069 -12.557773
49.040000 -12.792553 -13.228370 -12.673728
49.080000 -12.948859 -13.398545 -12.833664
49.120000 -13.110102 -13.582915 -12.984764
49.160000 -13.247501 -13.734628 -13.114604
49.200000 -13.449637 -13.969198 -13.313581
49.240000 -13.572021 -14.102932 -13.430602
49.280000 -13.743045 -14.296989 -13.592781
49.320000 -13.921725 -14.496093 -13.770028
49.360000 -14.070285 -14.657150 -13.920268
49.400000 -14.297862 -14.922280 -14.147758
49.440000 -14.429563 -15.065657 -14.282218
49.480000 -14.619505 -15.278340 -14.478730
49.520000 -14.822222 -15.510316 -14.693016
49.560000 -14.986364 -15.690289 -14.868662
49.600000 -15.253401 -16.008208 -15.159042
