#Bolometric quasar luminosity functions from TRINITY Paper III (Fig. 2, Zhang+2024, MNRAS, 529, 2777)
#z: 2.0
#log10(Lbol [erg/s]) log10(QLF [Mpc^-3 dex^-1]) log10(QLF_16th [Mpc^-3 dex^-1]) log10(QLF_84th [Mpc^-3 dex^-1])
40.000000 -4.396318 -4.741070 -4.375547
40.040000 -4.387108 -4.728811 -4.365949
40.080000 -4.378088 -4.716888 -4.356559
40.120000 -4.369014 -4.704840 -4.347100
40.160000 -4.359892 -4.692217 -4.337589
40.200000 -4.350958 -4.679888 -4.328314
40.240000 -4.341726 -4.664092 -4.318433
40.280000 -4.332686 -4.649056 -4.310130
40.320000 -4.323547 -4.633345 -4.301779
40.360000 -4.314317 -4.617091 -4.293328
40.400000 -4.305280 -4.602510 -4.285038
40.440000 -4.295779 -4.588892 -4.274484
40.480000 -4.286481 -4.574904 -4.265279
40.520000 -4.276997 -4.555460 -4.256184
40.560000 -4.267344 -4.526707 -4.246862
40.600000 -4.257900 -4.506801 -4.237737
40.640000 -4.247714 -4.481804 -4.227724
40.680000 -4.237762 -4.463454 -4.217938
40.720000 -4.227390 -4.444910 -4.207545
40.760000 -4.216632 -4.423773 -4.195914
40.800000 -4.206133 -4.403621 -4.184472
40.840000 -4.194138 -4.386846 -4.173476
40.880000 -4.182465 -4.370629 -4.162755
40.920000 -4.170332 -4.359720 -4.153196
40.960000 -4.157786 -4.350001 -4.143637
41.000000 -4.145592 -4.337428 -4.135895
41.040000 -4.135035 -4.327996 -4.127769
41.080000 -4.124729 -4.314727 -4.119791
41.120000 -4.115600 -4.303437 -4.112386
41.160000 -4.107579 -4.293945 -4.105105
41.200000 -4.099704 -4.284186 -4.097786
41.240000 -4.092156 -4.274910 -4.089523
41.280000 -4.084737 -4.265828 -4.082161
41.320000 -4.077228 -4.256493 -4.074678
41.360000 -4.069636 -4.245770 -4.066414
41.400000 -4.062175 -4.235248 -4.059093
41.440000 -4.054337 -4.223801 -4.050872
41.480000 -4.046638 -4.212651 -4.042669
41.520000 -4.038832 -4.201202 -4.034346
41.560000 -4.030926 -4.190131 -4.025966
41.600000 -4.023162 -4.181129 -4.018129
41.640000 -4.015002 -4.171236 -4.009918
41.680000 -4.006992 -4.161564 -4.001859
41.720000 -3.998868 -4.151610 -3.993698
41.760000 -3.990640 -4.141398 -3.985442
41.800000 -3.982565 -4.131421 -3.976736
41.840000 -3.974126 -4.120631 -3.966861
41.880000 -3.965849 -4.109438 -3.957207
41.920000 -3.957475 -4.098093 -3.948288
41.960000 -3.949012 -4.086613 -3.939646
42.000000 -3.940711 -4.075138 -3.931366
42.040000 -3.932094 -4.062934 -3.921232
42.080000 -3.923644 -4.051616 -3.911274
42.120000 -3.915125 -4.039594 -3.900738
42.160000 -3.906545 -4.026560 -3.890874
42.200000 -3.898131 -4.013866 -3.883617
42.240000 -3.889460 -4.001757 -3.870856
42.280000 -3.880960 -3.991183 -3.859705
42.320000 -3.872439 -3.981064 -3.849157
42.360000 -3.863904 -3.970421 -3.838994
42.400000 -3.855534 -3.959292 -3.829063
42.440000 -3.846972 -3.947701 -3.819199
42.480000 -3.838576 -3.936296 -3.810865
42.520000 -3.830184 -3.925469 -3.802420
42.560000 -3.821798 -3.914151 -3.791129
42.600000 -3.813572 -3.902388 -3.781312
42.640000 -3.805305 -3.891020 -3.774556
42.680000 -3.797192 -3.879788 -3.765678
42.720000 -3.789122 -3.868969 -3.759269
42.760000 -3.781094 -3.858334 -3.753573
42.800000 -3.773211 -3.847467 -3.744844
42.840000 -3.765249 -3.838056 -3.736360
42.880000 -3.757430 -3.827480 -3.729429
42.920000 -3.749708 -3.817451 -3.718764
42.960000 -3.742080 -3.808086 -3.709129
43.000000 -3.734585 -3.796496 -3.700192
43.040000 -3.727204 -3.787358 -3.691634
43.080000 -3.719946 -3.778867 -3.683468
43.120000 -3.712768 -3.771633 -3.675921
43.160000 -3.705668 -3.765084 -3.669099
43.200000 -3.698682 -3.758634 -3.662382
43.240000 -3.691835 -3.752457 -3.655689
43.280000 -3.685093 -3.745948 -3.647508
43.320000 -3.678573 -3.738579 -3.642920
43.360000 -3.672266 -3.733757 -3.638679
43.400000 -3.666050 -3.726534 -3.632774
43.440000 -3.660160 -3.719833 -3.628183
43.480000 -3.654350 -3.713105 -3.623265
43.520000 -3.648788 -3.706531 -3.616947
43.560000 -3.643467 -3.700601 -3.611480
43.600000 -3.638211 -3.693605 -3.606319
43.640000 -3.633545 -3.686990 -3.602335
43.680000 -3.628929 -3.680871 -3.598426
43.720000 -3.624761 -3.675324 -3.594948
43.760000 -3.621030 -3.671413 -3.591891
43.800000 -3.617330 -3.669249 -3.589181
43.840000 -3.614723 -3.666963 -3.586287
43.880000 -3.612132 -3.664603 -3.585894
43.920000 -3.610197 -3.663036 -3.583997
43.960000 -3.608909 -3.662036 -3.582943
44.000000 -3.607626 -3.661007 -3.582185
44.040000 -3.607830 -3.661653 -3.584405
44.080000 -3.608034 -3.663004 -3.584749
44.120000 -3.609194 -3.666019 -3.587840
44.160000 -3.611316 -3.668472 -3.591451
44.200000 -3.613448 -3.673003 -3.596193
44.240000 -3.617658 -3.676459 -3.601100
44.280000 -3.621908 -3.678254 -3.608353
44.320000 -3.627331 -3.683871 -3.614379
44.360000 -3.633970 -3.691249 -3.622844
44.400000 -3.640712 -3.698961 -3.628595
44.440000 -3.649496 -3.709502 -3.639152
44.480000 -3.658460 -3.721834 -3.648869
44.520000 -3.668491 -3.733005 -3.659507
44.560000 -3.679658 -3.744893 -3.671815
44.600000 -3.691120 -3.758775 -3.683467
44.640000 -3.704765 -3.772770 -3.697725
44.680000 -3.718853 -3.787042 -3.712368
44.720000 -3.734143 -3.803437 -3.728236
44.760000 -3.750750 -3.820564 -3.745501
44.800000 -3.768017 -3.838395 -3.763594
44.840000 -3.786994 -3.858185 -3.783383
44.880000 -3.806837 -3.878908 -3.803026
44.920000 -3.827799 -3.900441 -3.821276
44.960000 -3.850000 -3.923236 -3.842352
45.000000 -3.873398 -3.947314 -3.864695
45.040000 -3.898034 -3.972326 -3.889207
45.080000 -3.924151 -3.998988 -3.915718
45.120000 -3.951152 -4.025857 -3.944039
45.160000 -3.979102 -4.054758 -3.973288
45.200000 -4.008976 -4.085484 -4.003250
45.240000 -4.038389 -4.114052 -4.031671
45.280000 -4.069940 -4.145385 -4.062260
45.320000 -4.102127 -4.177472 -4.094891
45.360000 -4.134910 -4.209301 -4.127189
45.400000 -4.170371 -4.243521 -4.161865
45.440000 -4.203951 -4.275501 -4.194926
45.480000 -4.240347 -4.309777 -4.230711
45.520000 -4.277156 -4.345290 -4.266157
45.560000 -4.314199 -4.380885 -4.301936
45.600000 -4.354697 -4.419969 -4.340885
45.640000 -4.391844 -4.455484 -4.376484
45.680000 -4.432467 -4.494110 -4.415893
45.720000 -4.473174 -4.532719 -4.454914
45.760000 -4.513582 -4.572167 -4.493738
45.800000 -4.558138 -4.615260 -4.536422
45.840000 -4.598050 -4.652057 -4.574891
45.880000 -4.642005 -4.692553 -4.616992
45.920000 -4.685836 -4.736218 -4.659064
45.960000 -4.728979 -4.775788 -4.700541
46.000000 -4.776886 -4.821805 -4.746533
46.040000 -4.818966 -4.861863 -4.787075
46.080000 -4.865565 -4.907778 -4.831461
46.120000 -4.911845 -4.951458 -4.876228
46.160000 -4.957070 -4.996957 -4.919252
46.200000 -5.007558 -5.045807 -4.965841
46.240000 -5.051320 -5.088395 -5.006773
46.280000 -5.099991 -5.135630 -5.052386
46.320000 -5.148226 -5.183411 -5.096324
46.360000 -5.195153 -5.229513 -5.139856
46.400000 -5.247771 -5.278760 -5.188172
46.440000 -5.293041 -5.324392 -5.230674
46.480000 -5.343586 -5.375389 -5.277622
46.520000 -5.393688 -5.425916 -5.323836
46.560000 -5.442373 -5.474295 -5.368999
46.600000 -5.497212 -5.527962 -5.418632
46.640000 -5.544283 -5.573692 -5.461199
46.680000 -5.597084 -5.624810 -5.510353
46.720000 -5.649519 -5.677116 -5.559991
46.760000 -5.700513 -5.728893 -5.608691
46.800000 -5.758301 -5.786782 -5.663550
46.840000 -5.807784 -5.836738 -5.711014
46.880000 -5.863640 -5.892932 -5.764311
46.920000 -5.919259 -5.949095 -5.817442
46.960000 -5.973428 -6.004074 -5.869426
47.000000 -6.035328 -6.066999 -5.927338
47.040000 -6.088013 -6.120381 -5.977701
47.080000 -6.147983 -6.180477 -6.034938
47.120000 -6.207830 -6.240430 -6.094371
47.160000 -6.266090 -6.298783 -6.152731
47.200000 -6.333396 -6.367918 -6.220143
47.240000 -6.390228 -6.426779 -6.275083
47.280000 -6.455633 -6.494395 -6.340088
47.320000 -6.521093 -6.560600 -6.404331
47.360000 -6.584776 -6.624737 -6.467043
47.400000 -6.659428 -6.700017 -6.541017
47.440000 -6.721506 -6.762615 -6.603273
47.480000 -6.793962 -6.835270 -6.674914
47.520000 -6.866633 -6.907296 -6.745535
47.560000 -6.937043 -6.977557 -6.815736
47.600000 -7.021118 -7.066510 -6.898949
47.640000 -7.089453 -7.136234 -6.966506
47.680000 -7.170584 -7.218467 -7.047133
47.720000 -7.252029 -7.300978 -7.128171
47.760000 -7.330222 -7.380015 -7.204925
47.800000 -7.425654 -7.478100 -7.299571
47.840000 -7.500985 -7.555619 -7.376211
47.880000 -7.592183 -7.647550 -7.469808
47.920000 -7.683875 -7.740602 -7.563558
47.960000 -7.770879 -7.831436 -7.651573
48.000000 -7.879795 -7.948146 -7.760589
48.040000 -7.962643 -8.031469 -7.843915
48.080000 -8.065111 -8.134669 -7.946689
48.120000 -8.168312 -8.238503 -8.047784
48.160000 -8.264681 -8.336772 -8.141226
48.200000 -8.388720 -8.472719 -8.259989
48.240000 -8.479371 -8.564496 -8.348657
48.280000 -8.594074 -8.679867 -8.463968
48.320000 -8.709982 -8.799815 -8.583734
48.360000 -8.816247 -8.908519 -8.695029
48.400000 -8.957240 -9.051660 -8.836316
48.440000 -9.056007 -9.154736 -8.936515
48.480000 -9.184059 -9.289660 -9.066678
48.520000 -9.314143 -9.425764 -9.191394
48.560000 -9.430914 -9.549719 -9.302621
48.600000 -9.591117 -9.719750 -9.463203
48.640000 -9.697860 -9.825970 -9.572158
48.680000 -9.839698 -9.969389 -9.714351
48.720000 -9.984665 -10.120680 -9.852673
48.760000 -10.111480 -10.251142 -9.974716
48.800000 -10.291349 -10.440644 -10.146324
48.840000 -10.405706 -10.561806 -10.259671
48.880000 -10.561377 -10.735532 -10.408388
48.920000 -10.721867 -10.905434 -10.571403
48.960000 -10.858723 -11.047374 -10.706271
49.000000 -11.059679 -11.267332 -10.910555
49.040000 -11.181662 -11.395090 -11.034325
49.080000 -11.351903 -11.576916 -11.202991
49.120000 -11.529448 -11.765773 -11.370874
49.160000 -11.676819 -11.919345 -11.513500
49.200000 -11.901581 -12.159093 -11.731022
49.240000 -12.031247 -12.293124 -11.855542
49.280000 -12.216950 -12.487999 -12.030799
49.320000 -12.413333 -12.694582 -12.214309
49.360000 -12.571263 -12.860807 -12.364983
49.400000 -12.821967 -13.129440 -12.599416
49.440000 -12.959040 -13.272276 -12.732296
49.480000 -13.160466 -13.486344 -12.926629
49.520000 -13.376999 -13.718275 -13.134966
49.560000 -13.545277 -13.894566 -13.305777
49.600000 -13.823676 -14.191697 -13.585230
