#Bolometric quasar luminosity functions from TRINITY Paper III (Fig. 2, Zhang+2024, MNRAS, 529, 2777)
#z: 0.1
#log10(Lbol [erg/s]) log10(QLF [Mpc^-3 dex^-1]) log10(QLF_16th [Mpc^-3 dex^-1]) log10(QLF_84th [Mpc^-3 dex^-1])
40.000000 -2.767491 -2.997040 -2.669179
40.040000 -2.771796 -3.002167 -2.675792
40.080000 -2.776144 -3.006418 -2.682508
40.120000 -2.781087 -3.011385 -2.689319
40.160000 -2.786647 -3.018032 -2.696495
40.200000 -2.792278 -3.024466 -2.702835
40.240000 -2.798607 -3.030142 -2.709530
40.280000 -2.805029 -3.035720 -2.715329
40.320000 -2.811586 -3.039889 -2.721483
40.360000 -2.818283 -3.042437 -2.728847
40.400000 -2.825084 -3.047216 -2.737403
40.440000 -2.832308 -3.052063 -2.744956
40.480000 -2.839654 -3.055406 -2.752642
40.520000 -2.847290 -3.063358 -2.760464
40.560000 -2.855229 -3.071773 -2.768425
40.600000 -2.863315 -3.074677 -2.776428
40.640000 -2.871707 -3.078714 -2.783991
40.680000 -2.880263 -3.083036 -2.792387
40.720000 -2.888884 -3.090041 -2.800320
40.760000 -2.897569 -3.096994 -2.808616
40.800000 -2.906432 -3.104060 -2.818302
40.840000 -2.915109 -3.110956 -2.828404
40.880000 -2.923963 -3.117962 -2.835229
40.920000 -2.932840 -3.125118 -2.843125
40.960000 -2.941738 -3.132426 -2.851521
41.000000 -2.950822 -3.139859 -2.861608
41.040000 -2.959796 -3.147270 -2.872703
41.080000 -2.968958 -3.154809 -2.884093
41.120000 -2.978138 -3.165061 -2.895435
41.160000 -2.987330 -3.175602 -2.906716
41.200000 -2.996721 -3.184264 -2.915983
41.240000 -3.005976 -3.191025 -2.921627
41.280000 -3.015433 -3.195752 -2.927432
41.320000 -3.024875 -3.205410 -2.933722
41.360000 -3.034296 -3.213371 -2.944635
41.400000 -3.043926 -3.221496 -2.956445
41.440000 -3.053388 -3.231005 -2.968057
41.480000 -3.063061 -3.237644 -2.980378
41.520000 -3.072737 -3.243184 -2.992657
41.560000 -3.082410 -3.250780 -3.004879
41.600000 -3.092304 -3.258880 -3.017454
41.640000 -3.101881 -3.266963 -3.029557
41.680000 -3.111674 -3.275950 -3.042007
41.720000 -3.121443 -3.285497 -3.054437
41.760000 -3.131182 -3.295035 -3.066835
41.800000 -3.141144 -3.304788 -3.078987
41.840000 -3.150813 -3.314483 -3.088579
41.880000 -3.160701 -3.323770 -3.100963
41.920000 -3.170590 -3.333006 -3.113436
41.960000 -3.180475 -3.341685 -3.125997
42.000000 -3.190591 -3.351986 -3.137572
42.040000 -3.200658 -3.362025 -3.147741
42.080000 -3.210965 -3.372304 -3.158404
42.120000 -3.221327 -3.381332 -3.169070
42.160000 -3.231741 -3.389098 -3.179733
42.200000 -3.242412 -3.402328 -3.190667
42.240000 -3.252789 -3.412527 -3.201253
42.280000 -3.263421 -3.422801 -3.212037
42.320000 -3.274116 -3.433169 -3.220105
42.360000 -3.284873 -3.443630 -3.230583
42.400000 -3.295904 -3.454350 -3.243788
42.440000 -3.306862 -3.464815 -3.254639
42.480000 -3.318103 -3.475539 -3.265451
42.520000 -3.329604 -3.486230 -3.276420
42.560000 -3.341377 -3.498758 -3.287931
42.600000 -3.353479 -3.511485 -3.299756
42.640000 -3.365528 -3.522849 -3.311258
42.680000 -3.377921 -3.536809 -3.323072
42.720000 -3.390455 -3.551218 -3.335004
42.760000 -3.403133 -3.565207 -3.347021
42.800000 -3.416192 -3.579334 -3.358150
42.840000 -3.429329 -3.593606 -3.369023
42.880000 -3.442876 -3.609000 -3.380520
42.920000 -3.456546 -3.624403 -3.393409
42.960000 -3.470337 -3.639794 -3.405720
43.000000 -3.484581 -3.655135 -3.417127
43.040000 -3.498838 -3.666006 -3.429348
43.080000 -3.513579 -3.679291 -3.444040
43.120000 -3.528590 -3.692002 -3.457461
43.160000 -3.543882 -3.704297 -3.471201
43.200000 -3.559732 -3.716955 -3.485390
43.240000 -3.575621 -3.730864 -3.500432
43.280000 -3.592113 -3.748618 -3.519241
43.320000 -3.608957 -3.766601 -3.540267
43.360000 -3.626168 -3.783009 -3.561615
43.400000 -3.644090 -3.798442 -3.579633
43.440000 -3.662152 -3.813970 -3.595740
43.480000 -3.680998 -3.829724 -3.609698
43.520000 -3.700387 -3.845848 -3.624321
43.560000 -3.720354 -3.866000 -3.642616
43.600000 -3.741285 -3.889122 -3.666782
43.640000 -3.762136 -3.908067 -3.680967
43.680000 -3.784039 -3.924257 -3.704497
43.720000 -3.806354 -3.945713 -3.723440
43.760000 -3.829084 -3.968444 -3.740066
43.800000 -3.853070 -3.991946 -3.757041
43.840000 -3.876648 -4.008306 -3.779649
43.880000 -3.901579 -4.024059 -3.810603
43.920000 -3.926997 -4.051609 -3.831956
43.960000 -3.952898 -4.078572 -3.852787
44.000000 -3.980443 -4.105821 -3.882098
44.040000 -4.007274 -4.126369 -3.907783
44.080000 -4.035872 -4.154038 -3.932902
44.120000 -4.064959 -4.180491 -3.958548
44.160000 -4.094500 -4.204444 -3.985537
44.200000 -4.126197 -4.233468 -4.015094
44.240000 -4.156763 -4.261422 -4.043829
44.280000 -4.189644 -4.290531 -4.069934
44.320000 -4.223134 -4.322728 -4.099607
44.360000 -4.257166 -4.352889 -4.130302
44.400000 -4.294093 -4.383581 -4.161587
44.440000 -4.328671 -4.415282 -4.192324
44.480000 -4.366242 -4.449215 -4.224539
44.520000 -4.404067 -4.485211 -4.256447
44.560000 -4.441894 -4.518459 -4.288888
44.600000 -4.483334 -4.554036 -4.317222
44.640000 -4.521648 -4.590701 -4.345288
44.680000 -4.563672 -4.631955 -4.375463
44.720000 -4.605957 -4.670681 -4.410065
44.760000 -4.648128 -4.716727 -4.452828
44.800000 -4.694838 -4.764177 -4.500364
44.840000 -4.736673 -4.804925 -4.544027
44.880000 -4.782972 -4.850038 -4.589722
44.920000 -4.829311 -4.898179 -4.631059
44.960000 -4.875088 -4.942334 -4.679007
45.000000 -4.926264 -4.992648 -4.721848
45.040000 -4.971301 -5.037055 -4.763521
45.080000 -5.021554 -5.086137 -4.818885
45.120000 -5.071724 -5.132883 -4.864342
45.160000 -5.120977 -5.178789 -4.911269
45.200000 -5.176539 -5.233088 -4.969584
45.240000 -5.224818 -5.281645 -5.022270
45.280000 -5.279142 -5.338754 -5.082242
45.320000 -5.333174 -5.393799 -5.143195
45.360000 -5.385772 -5.446363 -5.203097
45.400000 -5.445630 -5.505957 -5.268479
45.440000 -5.496345 -5.559804 -5.325041
45.480000 -5.553774 -5.622126 -5.391017
45.520000 -5.610728 -5.685615 -5.454956
45.560000 -5.665784 -5.742694 -5.514384
45.600000 -5.728847 -5.807738 -5.583139
45.640000 -5.781963 -5.865622 -5.637326
45.680000 -5.842494 -5.931566 -5.701965
45.720000 -5.902558 -5.997706 -5.763274
45.760000 -5.960502 -6.063324 -5.822875
45.800000 -6.027386 -6.135499 -5.900328
45.840000 -6.082982 -6.196094 -5.964822
45.880000 -6.146755 -6.266539 -6.037209
45.920000 -6.210196 -6.336363 -6.108147
45.960000 -6.271439 -6.402798 -6.175284
46.000000 -6.342759 -6.480932 -6.254581
46.040000 -6.401747 -6.543737 -6.314368
46.080000 -6.470025 -6.617489 -6.388239
46.120000 -6.537961 -6.691535 -6.458455
46.160000 -6.603246 -6.762459 -6.529898
46.200000 -6.680111 -6.844670 -6.613862
46.240000 -6.742564 -6.910451 -6.682404
46.280000 -6.815532 -6.991275 -6.762332
46.320000 -6.888223 -7.070653 -6.843751
46.360000 -6.957842 -7.140718 -6.921180
46.400000 -7.040791 -7.230251 -7.015825
46.440000 -7.107119 -7.300260 -7.087457
46.480000 -7.185436 -7.382980 -7.171383
46.520000 -7.263429 -7.467047 -7.252214
46.560000 -7.337578 -7.545888 -7.325280
46.600000 -7.427048 -7.636767 -7.412669
46.640000 -7.497273 -7.705663 -7.482599
46.680000 -7.581084 -7.789539 -7.568794
46.720000 -7.664419 -7.873370 -7.651312
46.760000 -7.742823 -7.954887 -7.726417
46.800000 -7.838570 -8.055324 -7.817284
46.840000 -7.912075 -8.130840 -7.887900
46.880000 -8.000607 -8.222308 -7.977858
46.920000 -8.088602 -8.312986 -8.069774
46.960000 -8.170727 -8.396800 -8.154835
47.000000 -8.272091 -8.498249 -8.260314
47.040000 -8.348312 -8.575895 -8.338190
47.080000 -8.440820 -8.670513 -8.428283
47.120000 -8.532660 -8.764339 -8.514058
47.160000 -8.617620 -8.849249 -8.592641
47.200000 -8.723346 -8.957115 -8.693000
47.240000 -8.801780 -9.035788 -8.766920
47.280000 -8.897571 -9.131939 -8.854937
47.320000 -8.992621 -9.227287 -8.945219
47.360000 -9.079951 -9.314730 -9.027251
47.400000 -9.189377 -9.424337 -9.125602
47.440000 -9.269587 -9.504614 -9.204146
47.480000 -9.368045 -9.602926 -9.301164
47.520000 -9.465809 -9.703938 -9.398398
47.560000 -9.555300 -9.794834 -9.488989
47.600000 -9.668148 -9.905848 -9.604183
47.640000 -9.750032 -9.986478 -9.685061
47.680000 -9.851028 -10.090981 -9.787644
47.720000 -9.951361 -10.195286 -9.890688
47.760000 -10.042835 -10.288316 -9.984512
47.800000 -10.158861 -10.408907 -10.098782
47.840000 -10.242597 -10.495177 -10.181010
47.880000 -10.346430 -10.603989 -10.285511
47.920000 -10.449800 -10.712424 -10.389514
47.960000 -10.543897 -10.810055 -10.484382
48.000000 -10.664188 -10.937833 -10.605941
48.040000 -10.750437 -11.027209 -10.692269
48.080000 -10.858169 -11.139696 -10.800128
48.120000 -10.965803 -11.252226 -10.909124
48.160000 -11.063678 -11.353752 -11.006395
48.200000 -11.190231 -11.484902 -11.131936
48.240000 -11.280123 -11.575542 -11.221568
48.280000 -11.393611 -11.692439 -11.335125
48.320000 -11.507513 -11.815164 -11.449970
48.360000 -11.610743 -11.925736 -11.554365
48.400000 -11.746423 -12.076319 -11.692472
48.440000 -11.841317 -12.178647 -11.790072
48.480000 -11.962916 -12.312751 -11.916165
48.520000 -12.085543 -12.448776 -12.043822
48.560000 -12.195667 -12.563064 -12.153076
48.600000 -12.343563 -12.736222 -12.298996
48.640000 -12.444130 -12.843335 -12.401050
48.680000 -12.575234 -12.983062 -12.535686
48.720000 -12.708207 -13.124364 -12.674246
48.760000 -12.826151 -13.247337 -12.795132
48.800000 -12.988583 -13.421299 -12.960250
48.840000 -13.095674 -13.535153 -13.070164
48.880000 -13.238131 -13.698291 -13.216057
48.920000 -13.383737 -13.868678 -13.362464
48.960000 -13.510873 -14.012264 -13.497377
49.000000 -13.691393 -14.219099 -13.693481
49.040000 -13.806319 -14.338846 -13.813781
49.080000 -13.963053 -14.515751 -13.980745
49.120000 -14.124963 -14.702919 -14.155040
49.160000 -14.263223 -14.855635 -14.298462
49.200000 -14.467248 -15.092159 -14.506769
49.240000 -14.591095 -15.227293 -14.642585
49.280000 -14.765011 -15.422565 -14.818059
49.320000 -14.948062 -15.631870 -15.004484
49.360000 -15.101587 -15.798194 -15.165324
49.400000 -15.341199 -16.076985 -15.427474
49.440000 -15.479838 -16.227083 -15.574953
49.480000 -15.684698 -16.464112 -15.792746
49.520000 -15.908704 -16.719521 -16.030263
49.560000 -16.089411 -16.913553 -16.221604
49.600000 -16.404590 -17.305208 -16.564731
