#Bolometric quasar luminosity functions from TRINITY Paper III (Fig. 2, Zhang+2024, MNRAS, 529, 2777)
#z: 1.5
#log10(Lbol [erg/s]) log10(QLF [Mpc^-3 dex^-1]) log10(QLF_16th [Mpc^-3 dex^-1]) log10(QLF_84th [Mpc^-3 dex^-1])
40.000000 -4.135886 -4.377818 -4.105083
40.040000 -4.128074 -4.366991 -4.097952
40.080000 -4.120399 -4.355558 -4.090935
40.120000 -4.112692 -4.343849 -4.082788
40.160000 -4.104957 -4.331894 -4.074513
40.200000 -4.097357 -4.320261 -4.066394
40.240000 -4.089558 -4.307445 -4.057769
40.280000 -4.081898 -4.295043 -4.050489
40.320000 -4.074172 -4.283676 -4.044493
40.360000 -4.066386 -4.272039 -4.038433
40.400000 -4.058738 -4.260433 -4.032457
40.440000 -4.050764 -4.247548 -4.026216
40.480000 -4.042934 -4.235036 -4.019721
40.520000 -4.034979 -4.222191 -4.011525
40.560000 -4.026908 -4.208727 -3.999605
40.600000 -4.018984 -4.193138 -3.987686
40.640000 -4.010555 -4.178834 -3.974798
40.680000 -4.002286 -4.164232 -3.967139
40.720000 -3.993741 -4.151796 -3.959719
40.760000 -3.984938 -4.139272 -3.948866
40.800000 -3.976310 -4.127012 -3.938385
40.840000 -3.966926 -4.113690 -3.929635
40.880000 -3.957740 -4.101835 -3.921402
40.920000 -3.948596 -4.093129 -3.914010
40.960000 -3.939495 -4.084496 -3.907116
41.000000 -3.930581 -4.075554 -3.900328
41.040000 -3.922918 -4.066380 -3.893939
41.080000 -3.915388 -4.056521 -3.887717
41.120000 -3.908388 -4.047399 -3.881511
41.160000 -3.901895 -4.038973 -3.874982
41.200000 -3.895497 -4.030567 -3.867302
41.240000 -3.889201 -4.022042 -3.859828
41.280000 -3.882995 -4.013683 -3.852364
41.320000 -3.876758 -4.004571 -3.846237
41.360000 -3.870491 -3.995106 -3.841487
41.400000 -3.864314 -3.985601 -3.836789
41.440000 -3.857955 -3.975904 -3.831472
41.480000 -3.851688 -3.965623 -3.825056
41.520000 -3.845389 -3.955613 -3.816549
41.560000 -3.839058 -3.946789 -3.810242
41.600000 -3.832819 -3.938140 -3.804424
41.640000 -3.826473 -3.929005 -3.798526
41.680000 -3.820219 -3.919883 -3.792708
41.720000 -3.813966 -3.910767 -3.786534
41.760000 -3.807715 -3.901606 -3.779027
41.800000 -3.801553 -3.892605 -3.772274
41.840000 -3.795348 -3.883533 -3.766222
41.880000 -3.789230 -3.874456 -3.758635
41.920000 -3.783169 -3.865347 -3.751045
41.960000 -3.777162 -3.856290 -3.743689
42.000000 -3.771237 -3.847420 -3.737377
42.040000 -3.765375 -3.839715 -3.731205
42.080000 -3.759592 -3.831663 -3.725383
42.120000 -3.753884 -3.822983 -3.719888
42.160000 -3.748249 -3.815060 -3.714013
42.200000 -3.742686 -3.807238 -3.708231
42.240000 -3.737201 -3.799328 -3.703254
42.280000 -3.731784 -3.791560 -3.699500
42.320000 -3.726474 -3.783924 -3.692932
42.360000 -3.721269 -3.776415 -3.686505
42.400000 -3.716124 -3.769032 -3.680892
42.440000 -3.711160 -3.762125 -3.675515
42.480000 -3.706252 -3.756116 -3.669658
42.520000 -3.701479 -3.750254 -3.663044
42.560000 -3.696838 -3.745133 -3.656597
42.600000 -3.692245 -3.739107 -3.650244
42.640000 -3.687895 -3.734018 -3.644135
42.680000 -3.683588 -3.728406 -3.638327
42.720000 -3.679464 -3.724778 -3.634201
42.760000 -3.675520 -3.720029 -3.630738
42.800000 -3.671612 -3.714851 -3.626096
42.840000 -3.668031 -3.710644 -3.623106
42.880000 -3.664479 -3.705271 -3.619069
42.920000 -3.661086 -3.699733 -3.613270
42.960000 -3.657849 -3.696537 -3.607777
43.000000 -3.654636 -3.693336 -3.603592
43.040000 -3.651777 -3.689911 -3.600503
43.080000 -3.648938 -3.687109 -3.595528
43.120000 -3.646260 -3.682561 -3.591002
43.160000 -3.643740 -3.679138 -3.589504
43.200000 -3.641235 -3.675741 -3.588119
43.240000 -3.639054 -3.672694 -3.587232
43.280000 -3.636883 -3.669670 -3.584500
43.320000 -3.634899 -3.667910 -3.581893
43.360000 -3.633099 -3.666565 -3.579582
43.400000 -3.631306 -3.662986 -3.577283
43.440000 -3.629892 -3.661652 -3.576006
43.480000 -3.628482 -3.660899 -3.573448
43.520000 -3.627301 -3.658863 -3.571800
43.560000 -3.626346 -3.657415 -3.570634
43.600000 -3.625393 -3.656299 -3.570002
43.640000 -3.625093 -3.655720 -3.568599
43.680000 -3.624793 -3.655142 -3.567709
43.720000 -3.624741 -3.654821 -3.567640
43.760000 -3.624935 -3.654707 -3.569466
43.800000 -3.625130 -3.654593 -3.568789
43.840000 -3.625935 -3.655069 -3.570661
43.880000 -3.626741 -3.655545 -3.573126
43.920000 -3.627987 -3.656392 -3.576093
43.960000 -3.629676 -3.657612 -3.579572
44.000000 -3.631372 -3.658617 -3.582064
44.040000 -3.634000 -3.660898 -3.584284
44.080000 -3.636644 -3.663380 -3.587444
44.120000 -3.639910 -3.667057 -3.591754
44.160000 -3.643810 -3.671619 -3.597279
44.200000 -3.647746 -3.676166 -3.602682
44.240000 -3.653204 -3.682680 -3.610103
44.280000 -3.658732 -3.689445 -3.617556
44.320000 -3.665073 -3.696898 -3.623692
44.360000 -3.672262 -3.705072 -3.631938
44.400000 -3.679572 -3.713281 -3.638352
44.440000 -3.688761 -3.723250 -3.647956
44.480000 -3.698149 -3.731265 -3.660311
44.520000 -3.708828 -3.745011 -3.674048
44.560000 -3.720892 -3.759451 -3.690262
44.600000 -3.733301 -3.770701 -3.704369
44.640000 -3.747399 -3.785460 -3.719964
44.680000 -3.761970 -3.801844 -3.736050
44.720000 -3.777584 -3.818219 -3.753368
44.760000 -3.794339 -3.837043 -3.771747
44.800000 -3.811765 -3.856747 -3.790782
44.840000 -3.830735 -3.877781 -3.810465
44.880000 -3.850572 -3.899885 -3.830496
44.920000 -3.871511 -3.923034 -3.852156
44.960000 -3.893669 -3.945679 -3.874193
45.000000 -3.917020 -3.969841 -3.898024
45.040000 -3.941321 -3.994502 -3.922623
45.080000 -3.967064 -4.022595 -3.946808
45.120000 -3.993781 -4.050092 -3.972663
45.160000 -4.021560 -4.078972 -4.000007
45.200000 -4.051237 -4.109912 -4.029644
45.240000 -4.080384 -4.139403 -4.059043
45.280000 -4.111629 -4.170738 -4.090578
45.320000 -4.143530 -4.201830 -4.122693
45.360000 -4.176058 -4.233963 -4.155773
45.400000 -4.211222 -4.269776 -4.191408
45.440000 -4.244663 -4.303102 -4.225073
45.480000 -4.280895 -4.339127 -4.260717
45.520000 -4.317453 -4.375554 -4.296746
45.560000 -4.354133 -4.411329 -4.332698
45.600000 -4.394200 -4.450388 -4.371718
45.640000 -4.430994 -4.487043 -4.407508
45.680000 -4.471195 -4.527232 -4.446827
45.720000 -4.511399 -4.565877 -4.485991
45.760000 -4.551211 -4.603878 -4.524228
45.800000 -4.595044 -4.646516 -4.566161
45.840000 -4.634307 -4.684591 -4.603955
45.880000 -4.677475 -4.727391 -4.645459
45.920000 -4.720452 -4.769268 -4.686776
45.960000 -4.762681 -4.812073 -4.728203
46.000000 -4.809463 -4.856717 -4.772259
46.040000 -4.850621 -4.897011 -4.811921
46.080000 -4.896091 -4.940474 -4.855615
46.120000 -4.941239 -4.983114 -4.899320
46.160000 -4.985376 -5.025769 -4.941765
46.200000 -5.034512 -5.072668 -4.988901
46.240000 -5.077335 -5.115067 -5.029281
46.280000 -5.124847 -5.162430 -5.075878
46.320000 -5.172020 -5.209383 -5.120885
46.360000 -5.218068 -5.255713 -5.164028
46.400000 -5.269584 -5.307128 -5.212404
46.440000 -5.314263 -5.350822 -5.255441
46.480000 -5.364070 -5.399149 -5.303635
46.520000 -5.413581 -5.447389 -5.348698
46.560000 -5.461909 -5.494883 -5.392899
46.600000 -5.516296 -5.547935 -5.442298
46.640000 -5.563223 -5.593617 -5.485754
46.680000 -5.615841 -5.644566 -5.534974
46.720000 -5.668222 -5.695349 -5.585285
46.760000 -5.719351 -5.745041 -5.635048
46.800000 -5.777313 -5.801162 -5.691260
46.840000 -5.827196 -5.849986 -5.740763
46.880000 -5.883561 -5.907016 -5.796108
46.920000 -5.939863 -5.964716 -5.850945
46.960000 -5.994922 -6.021348 -5.903460
47.000000 -6.057987 -6.086890 -5.963742
47.040000 -6.111938 -6.142319 -6.015958
47.080000 -6.173555 -6.204719 -6.077130
47.120000 -6.235257 -6.265849 -6.139362
47.160000 -6.295546 -6.325635 -6.200510
47.200000 -6.365575 -6.394988 -6.270105
47.240000 -6.424614 -6.453626 -6.327327
47.280000 -6.492961 -6.521436 -6.393256
47.320000 -6.561464 -6.589486 -6.462807
47.360000 -6.628055 -6.656947 -6.527546
47.400000 -6.706739 -6.740801 -6.602336
47.440000 -6.771634 -6.809254 -6.665130
47.480000 -6.847959 -6.890481 -6.741509
47.520000 -6.924542 -6.971976 -6.818642
47.560000 -6.998453 -7.047639 -6.889772
47.600000 -7.087577 -7.138585 -6.974879
47.640000 -7.159233 -7.210936 -7.043908
47.680000 -7.245094 -7.297539 -7.126467
47.720000 -7.331429 -7.383338 -7.209723
47.760000 -7.414018 -7.468173 -7.291897
47.800000 -7.516091 -7.574049 -7.395107
47.840000 -7.595296 -7.654219 -7.475338
47.880000 -7.692240 -7.754611 -7.572713
47.920000 -7.789767 -7.858673 -7.671284
47.960000 -7.881541 -7.956253 -7.763934
48.000000 -7.998053 -8.078185 -7.881863
48.040000 -8.084774 -8.169648 -7.969406
48.080000 -8.193244 -8.278990 -8.081921
48.120000 -8.302587 -8.394854 -8.193502
48.160000 -8.403669 -8.498606 -8.292012
48.200000 -8.535652 -8.630480 -8.419259
48.240000 -8.630077 -8.726667 -8.511499
48.280000 -8.750906 -8.849935 -8.631478
48.320000 -8.873301 -8.976297 -8.746871
48.360000 -8.984501 -9.090119 -8.858438
48.400000 -9.134353 -9.243897 -9.009841
48.440000 -9.236998 -9.348003 -9.111861
48.480000 -9.371669 -9.484722 -9.247736
48.520000 -9.508865 -9.633898 -9.379818
48.560000 -9.630572 -9.764564 -9.498423
48.600000 -9.800270 -9.951621 -9.659924
48.640000 -9.910725 -10.065790 -9.766073
48.680000 -10.059220 -10.221211 -9.909519
48.720000 -10.211456 -10.378705 -10.054481
48.760000 -10.342729 -10.513401 -10.177144
48.800000 -10.531773 -10.709701 -10.362140
48.840000 -10.648975 -10.836743 -10.476908
48.880000 -10.809994 -11.016249 -10.634776
48.920000 -10.976525 -11.193687 -10.794642
48.960000 -11.116839 -11.339361 -10.930666
49.000000 -11.325417 -11.555276 -11.129927
49.040000 -11.449796 -11.680821 -11.252185
49.080000 -11.624771 -11.863193 -11.422971
49.120000 -11.807968 -12.066722 -11.600992
49.160000 -11.958541 -12.223479 -11.748152
49.200000 -12.190940 -12.472197 -11.976618
49.240000 -12.322665 -12.610497 -12.108342
49.280000 -12.512654 -12.812989 -12.288834
49.320000 -12.714133 -13.029710 -12.476791
49.360000 -12.873950 -13.198445 -12.630296
49.400000 -13.129525 -13.482706 -12.873003
49.440000 -13.267106 -13.627806 -13.007711
49.480000 -13.469642 -13.843367 -13.199834
49.520000 -13.687355 -14.083879 -13.405570
49.560000 -13.855376 -14.263036 -13.571819
49.600000 -14.133057 -14.566615 -13.844601
