#Bolometric quasar luminosity functions from TRINITY Paper III (Fig. 2, Zhang+2024, MNRAS, 529, 2777)
#z: 6.0
#log10(Lbol [erg/s]) log10(QLF [Mpc^-3 dex^-1]) log10(QLF_16th [Mpc^-3 dex^-1]) log10(QLF_84th [Mpc^-3 dex^-1])
40.000000 -6.891875 -7.661304 -6.789415
40.040000 -6.878011 -7.639121 -6.769305
40.080000 -6.864576 -7.618019 -6.753897
40.120000 -6.851080 -7.597023 -6.741738
40.160000 -6.837540 -7.576918 -6.729656
40.200000 -6.824409 -7.557598 -6.717901
40.240000 -6.810702 -7.536553 -6.702360
40.280000 -6.797413 -7.516482 -6.685888
40.320000 -6.783939 -7.495760 -6.673429
40.360000 -6.770307 -7.474519 -6.660807
40.400000 -6.757090 -7.454271 -6.648541
40.440000 -6.742931 -7.431135 -6.635325
40.480000 -6.729219 -7.409176 -6.622501
40.520000 -6.715115 -7.385509 -6.609202
40.560000 -6.700670 -7.353226 -6.595484
40.600000 -6.686690 -7.325501 -6.582188
40.640000 -6.671017 -7.249438 -6.566911
40.680000 -6.655891 -7.225100 -6.552157
40.720000 -6.639606 -7.164110 -6.486907
40.760000 -6.622307 -7.079266 -6.430963
40.800000 -6.605671 -7.026736 -6.397477
40.840000 -6.583714 -6.967598 -6.269650
40.880000 -6.562815 -6.914722 -6.170225
40.920000 -6.536302 -6.863335 -6.048229
40.960000 -6.505202 -6.791071 -5.847167
41.000000 -6.476180 -6.734206 -5.722028
41.040000 -6.417888 -6.578363 -5.673876
41.080000 -6.366502 -6.489982 -5.612734
41.120000 -6.279645 -6.392851 -5.603706
41.160000 -6.175441 -6.304981 -5.608640
41.200000 -6.091465 -6.224748 -5.613651
41.240000 -6.066245 -6.219920 -5.625601
41.280000 -6.042410 -6.220609 -5.629890
41.320000 -6.032884 -6.222089 -5.643001
41.360000 -6.036746 -6.221147 -5.655524
41.400000 -6.040643 -6.225364 -5.668418
41.440000 -6.040075 -6.226016 -5.678720
41.480000 -6.039508 -6.225153 -5.689271
41.520000 -6.039581 -6.226007 -5.694361
41.560000 -6.040294 -6.234652 -5.708192
41.600000 -6.041009 -6.253852 -5.720565
41.640000 -6.039521 -6.267116 -5.733824
41.680000 -6.038039 -6.273011 -5.747501
41.720000 -6.038183 -6.269155 -5.759577
41.760000 -6.039955 -6.263524 -5.763037
41.800000 -6.041735 -6.259872 -5.760994
41.840000 -6.043145 -6.248741 -5.758963
41.880000 -6.044560 -6.249481 -5.752628
41.920000 -6.044286 -6.258495 -5.762142
41.960000 -6.042328 -6.264257 -5.773123
42.000000 -6.040378 -6.262357 -5.784726
42.040000 -6.034458 -6.249868 -5.785744
42.080000 -6.028617 -6.239031 -5.783851
42.120000 -6.021301 -6.225053 -5.781529
42.160000 -6.012583 -6.214234 -5.788050
42.200000 -6.004037 -6.212083 -5.786651
42.240000 -5.992880 -6.203199 -5.783499
42.280000 -5.982003 -6.206763 -5.771078
42.320000 -5.969804 -6.194459 -5.758187
42.360000 -5.956399 -6.176370 -5.748362
42.400000 -5.943396 -6.159446 -5.750826
42.440000 -5.930322 -6.152571 -5.736850
42.480000 -5.917631 -6.147930 -5.720209
42.520000 -5.903013 -6.152519 -5.717105
42.560000 -5.886669 -6.154001 -5.707378
42.600000 -5.870918 -6.154396 -5.690682
42.640000 -5.851248 -6.143531 -5.670853
42.680000 -5.832430 -6.129929 -5.651890
42.720000 -5.812476 -6.121096 -5.631628
42.760000 -5.791569 -6.101858 -5.610105
42.800000 -5.771623 -6.083316 -5.597633
42.840000 -5.748361 -6.061197 -5.592613
42.880000 -5.726283 -6.043645 -5.568155
42.920000 -5.702898 -6.024020 -5.549850
42.960000 -5.678463 -6.005407 -5.531389
43.000000 -5.655331 -5.993203 -5.504412
43.040000 -5.628746 -5.975371 -5.476288
43.080000 -5.603695 -5.951760 -5.454389
43.120000 -5.578006 -5.933597 -5.432151
43.160000 -5.551866 -5.919472 -5.410698
43.200000 -5.527209 -5.909817 -5.386537
43.240000 -5.499402 -5.888019 -5.360524
43.280000 -5.473269 -5.865418 -5.334833
43.320000 -5.446706 -5.841512 -5.309469
43.360000 -5.419876 -5.816027 -5.285534
43.400000 -5.394608 -5.795416 -5.263644
43.440000 -5.367940 -5.770647 -5.241955
43.480000 -5.342815 -5.746912 -5.221052
43.520000 -5.318122 -5.718455 -5.201264
43.560000 -5.293867 -5.687999 -5.182783
43.600000 -5.270895 -5.659954 -5.167380
43.640000 -5.247694 -5.634063 -5.147790
43.680000 -5.225669 -5.607343 -5.129163
43.720000 -5.204571 -5.578950 -5.113451
43.760000 -5.184321 -5.553177 -5.098992
43.800000 -5.164973 -5.526085 -5.082501
43.840000 -5.146916 -5.497244 -5.065366
43.880000 -5.129579 -5.470462 -5.049963
43.920000 -5.113576 -5.449943 -5.037085
43.960000 -5.098787 -5.429831 -5.023418
44.000000 -5.084485 -5.411610 -5.010167
44.040000 -5.072760 -5.394450 -4.995781
44.080000 -5.061343 -5.368483 -4.986838
44.120000 -5.051435 -5.341013 -4.984933
44.160000 -5.042941 -5.313687 -4.977942
44.200000 -5.034611 -5.302881 -4.966397
44.240000 -5.029500 -5.294434 -4.966215
44.280000 -5.024448 -5.277911 -4.962758
44.320000 -5.021290 -5.273115 -4.953091
44.360000 -5.019983 -5.262067 -4.957115
44.400000 -5.018680 -5.248103 -4.951849
44.440000 -5.021046 -5.248651 -4.948199
44.480000 -5.023425 -5.244989 -4.944348
44.520000 -5.027725 -5.246824 -4.941735
44.560000 -5.034002 -5.254747 -4.948962
44.600000 -5.040371 -5.262845 -4.951521
44.640000 -5.050809 -5.273606 -4.958195
44.680000 -5.061504 -5.286355 -4.964996
44.720000 -5.074166 -5.292910 -4.970140
44.760000 -5.088964 -5.294411 -4.982204
44.800000 -5.104284 -5.292954 -4.995536
44.840000 -5.122624 -5.302808 -5.013079
44.880000 -5.141772 -5.318107 -5.031249
44.920000 -5.162608 -5.335363 -5.047085
44.960000 -5.185341 -5.354819 -5.057604
45.000000 -5.209330 -5.375899 -5.069189
45.040000 -5.234714 -5.404759 -5.082299
45.080000 -5.261675 -5.431882 -5.093860
45.120000 -5.289787 -5.462879 -5.123269
45.160000 -5.319169 -5.495249 -5.148066
45.200000 -5.350683 -5.529967 -5.172570
45.240000 -5.382058 -5.560382 -5.201067
45.280000 -5.415876 -5.592603 -5.226673
45.320000 -5.450321 -5.625137 -5.258637
45.360000 -5.485314 -5.657689 -5.294306
45.400000 -5.523376 -5.692678 -5.333354
45.440000 -5.559214 -5.729642 -5.370498
45.480000 -5.598278 -5.770058 -5.411119
45.520000 -5.637634 -5.808423 -5.450853
45.560000 -5.677003 -5.846486 -5.485922
45.600000 -5.720301 -5.891116 -5.524605
45.640000 -5.759422 -5.930888 -5.564799
45.680000 -5.802419 -5.971424 -5.609299
45.720000 -5.845290 -6.010795 -5.653987
45.760000 -5.887507 -6.049265 -5.697844
45.800000 -5.934273 -6.091322 -5.746338
45.840000 -5.975420 -6.129562 -5.789378
45.880000 -6.020876 -6.174138 -5.837159
45.920000 -6.065979 -6.218576 -5.884764
45.960000 -6.110031 -6.262284 -5.931448
46.000000 -6.159061 -6.310889 -5.983763
46.040000 -6.201573 -6.353824 -6.029216
46.080000 -6.248702 -6.401479 -6.079989
46.120000 -6.295475 -6.448846 -6.130400
46.160000 -6.341118 -6.495151 -6.179491
46.200000 -6.392128 -6.545509 -6.235647
46.240000 -6.436274 -6.588429 -6.283696
46.280000 -6.485420 -6.635926 -6.338008
46.320000 -6.534275 -6.682632 -6.397845
46.360000 -6.581990 -6.728398 -6.445694
46.400000 -6.635602 -6.779562 -6.511430
46.440000 -6.682082 -6.824303 -6.564805
46.480000 -6.734140 -6.874188 -6.623014
46.520000 -6.786034 -6.925767 -6.680465
46.560000 -6.836809 -6.979963 -6.735818
46.600000 -6.894316 -7.035574 -6.796768
46.640000 -6.944045 -7.083933 -6.847173
46.680000 -7.000213 -7.138402 -6.905884
46.720000 -7.056309 -7.194124 -6.964383
46.760000 -7.111162 -7.245917 -7.021498
46.800000 -7.173959 -7.307565 -7.087991
46.840000 -7.227645 -7.363092 -7.143179
46.880000 -7.288917 -7.426775 -7.205120
46.920000 -7.350163 -7.490310 -7.269151
46.960000 -7.409860 -7.551924 -7.328043
47.000000 -7.479092 -7.622859 -7.401272
47.040000 -7.537321 -7.679943 -7.460572
47.080000 -7.604584 -7.746268 -7.530556
47.120000 -7.671853 -7.821267 -7.596822
47.160000 -7.737095 -7.888130 -7.658292
47.200000 -7.813900 -7.963548 -7.741004
47.240000 -7.877169 -8.021657 -7.803191
47.280000 -7.951254 -8.088621 -7.872423
47.320000 -8.025384 -8.166339 -7.941212
47.360000 -8.096798 -8.235606 -8.009694
47.400000 -8.182312 -8.325081 -8.089546
47.440000 -8.251017 -8.395695 -8.154691
47.480000 -8.332671 -8.480777 -8.231790
47.520000 -8.414374 -8.565378 -8.308862
47.560000 -8.492324 -8.645038 -8.384408
47.600000 -8.587395 -8.740414 -8.476521
47.640000 -8.661646 -8.811758 -8.547160
47.680000 -8.751263 -8.895752 -8.632603
47.720000 -8.840935 -8.983389 -8.718833
47.760000 -8.925499 -9.070006 -8.798329
47.800000 -9.030612 -9.176188 -8.894748
47.840000 -9.110410 -9.256294 -8.969596
47.880000 -9.208248 -9.352453 -9.063754
47.920000 -9.306235 -9.453308 -9.158609
47.960000 -9.397524 -9.546861 -9.243084
48.000000 -9.513253 -9.667316 -9.346743
48.040000 -9.598671 -9.749807 -9.425400
48.080000 -9.705108 -9.856976 -9.521526
48.120000 -9.811912 -9.964390 -9.622062
48.160000 -9.910158 -10.061635 -9.720804
48.200000 -10.037332 -10.185079 -9.838659
48.240000 -10.128560 -10.277626 -9.921423
48.280000 -10.244191 -10.397321 -10.036980
48.320000 -10.360609 -10.514560 -10.152087
48.360000 -10.466301 -10.620779 -10.249357
48.400000 -10.606283 -10.765794 -10.374905
48.440000 -10.703672 -10.865053 -10.465364
48.480000 -10.829409 -10.993446 -10.584138
48.520000 -10.956686 -11.122616 -10.706818
48.560000 -11.070718 -11.237841 -10.814710
48.600000 -11.225785 -11.396979 -10.955906
48.640000 -11.329967 -11.499370 -11.054275
48.680000 -11.467305 -11.633436 -11.181657
48.720000 -11.607091 -11.769627 -11.310881
48.760000 -11.729854 -11.889871 -11.426723
48.800000 -11.901626 -12.065079 -11.582251
48.840000 -12.012258 -12.178023 -11.686871
48.880000 -12.161076 -12.331073 -11.827983
48.920000 -12.313599 -12.488474 -11.968420
48.960000 -12.444881 -12.622937 -12.092892
49.000000 -12.633942 -12.818058 -12.268223
49.040000 -12.751103 -12.939625 -12.382167
49.080000 -12.912043 -13.110463 -12.534015
49.120000 -13.078887 -13.293664 -12.690275
49.160000 -13.220417 -13.441375 -12.824739
49.200000 -13.431722 -13.663875 -13.024791
49.240000 -13.557821 -13.797786 -13.156599
49.280000 -13.736241 -14.001384 -13.349741
49.320000 -13.926211 -14.218932 -13.521242
49.360000 -14.087723 -14.392539 -13.670433
49.400000 -14.347741 -14.709541 -13.911392
49.440000 -14.495819 -14.872628 -14.060673
49.480000 -14.722252 -15.137028 -14.289133
49.520000 -14.977951 -15.449164 -14.518646
49.560000 -15.178947 -15.658444 -14.706102
49.600000 -15.564613 -16.148880 -15.050711
