#Bolometric quasar luminosity functions from TRINITY Paper III (Fig. 2, Zhang+2024, MNRAS, 529, 2777)
#z: 8.0
#log10(Lbol [erg/s]) log10(QLF [Mpc^-3 dex^-1]) log10(QLF_16th [Mpc^-3 dex^-1]) log10(QLF_84th [Mpc^-3 dex^-1])
40.000000 -4.711858 -5.076720 -4.632646
40.040000 -4.701593 -5.063409 -4.622939
40.080000 -4.691565 -5.050494 -4.613444
40.120000 -4.681467 -5.037439 -4.603861
40.160000 -4.671309 -5.024269 -4.594198
40.200000 -4.661384 -5.011486 -4.584747
40.240000 -4.651087 -4.997845 -4.574506
40.280000 -4.641027 -4.984023 -4.564923
40.320000 -4.630841 -4.969606 -4.555026
40.360000 -4.620543 -4.954839 -4.544780
40.400000 -4.610483 -4.940559 -4.534772
40.440000 -4.599841 -4.924681 -4.523514
40.480000 -4.589455 -4.909200 -4.512544
40.520000 -4.578831 -4.885938 -4.503391
40.560000 -4.567993 -4.869937 -4.494322
40.600000 -4.557418 -4.854202 -4.485445
40.640000 -4.545896 -4.825312 -4.475870
40.680000 -4.534672 -4.805140 -4.466510
40.720000 -4.522858 -4.776353 -4.456978
40.760000 -4.510510 -4.749725 -4.444141
40.800000 -4.498503 -4.715355 -4.429630
40.840000 -4.484158 -4.682603 -4.415238
40.880000 -4.470273 -4.650351 -4.401315
40.920000 -4.454928 -4.627872 -4.389289
40.960000 -4.438288 -4.599772 -4.376292
41.000000 -4.422263 -4.587550 -4.364276
41.040000 -4.406988 -4.572636 -4.357388
41.080000 -4.392232 -4.567524 -4.349458
41.120000 -4.380308 -4.562033 -4.341238
41.160000 -4.370998 -4.556429 -4.334495
41.200000 -4.361884 -4.549641 -4.326345
41.240000 -4.354114 -4.542306 -4.319186
41.280000 -4.346480 -4.535093 -4.312142
41.320000 -4.338740 -4.527288 -4.305060
41.360000 -4.330902 -4.518770 -4.297944
41.400000 -4.323203 -4.510417 -4.290942
41.440000 -4.314976 -4.500670 -4.282878
41.480000 -4.306903 -4.490979 -4.274602
41.520000 -4.298629 -4.480514 -4.266119
41.560000 -4.290169 -4.469549 -4.257212
41.600000 -4.281871 -4.458854 -4.248759
41.640000 -4.273015 -4.448167 -4.239552
41.680000 -4.264335 -4.435960 -4.230596
41.720000 -4.255425 -4.423912 -4.220858
41.760000 -4.246303 -4.411447 -4.209004
41.800000 -4.237367 -4.399330 -4.198398
41.840000 -4.227811 -4.386003 -4.187325
41.880000 -4.218461 -4.372655 -4.176529
41.920000 -4.208889 -4.358975 -4.165477
41.960000 -4.199115 -4.345005 -4.154194
42.000000 -4.189556 -4.331722 -4.143199
42.040000 -4.179365 -4.317858 -4.131488
42.080000 -4.169407 -4.304792 -4.119141
42.120000 -4.159246 -4.291357 -4.106616
42.160000 -4.148900 -4.277499 -4.092231
42.200000 -4.138794 -4.264020 -4.079163
42.240000 -4.128034 -4.249622 -4.070033
42.280000 -4.117534 -4.236523 -4.057318
42.320000 -4.106828 -4.223353 -4.044300
42.360000 -4.095936 -4.211607 -4.031249
42.400000 -4.085311 -4.199854 -4.020923
42.440000 -4.074053 -4.183544 -4.005631
42.480000 -4.063080 -4.168547 -3.992550
42.520000 -4.051922 -4.154585 -3.980292
42.560000 -4.040602 -4.139914 -3.970705
42.600000 -4.029568 -4.127228 -3.958188
42.640000 -4.017897 -4.111319 -3.943904
42.680000 -4.006530 -4.097206 -3.932743
42.720000 -3.994968 -4.082427 -3.921114
42.760000 -3.983234 -4.069799 -3.907665
42.800000 -3.971808 -4.054411 -3.894913
42.840000 -3.959778 -4.037530 -3.883925
42.880000 -3.948072 -4.023490 -3.872929
42.920000 -3.936182 -4.009805 -3.861180
42.960000 -3.924130 -3.996897 -3.849394
43.000000 -3.912403 -3.984384 -3.838119
43.040000 -3.900007 -3.971305 -3.826412
43.080000 -3.887955 -3.958607 -3.815013
43.120000 -3.875824 -3.945890 -3.803695
43.160000 -3.863630 -3.933165 -3.792460
43.200000 -3.851770 -3.920658 -3.781509
43.240000 -3.839611 -3.907020 -3.770481
43.280000 -3.827784 -3.893803 -3.762720
43.320000 -3.816150 -3.880504 -3.751108
43.360000 -3.804703 -3.866465 -3.740175
43.400000 -3.793551 -3.855568 -3.727259
43.440000 -3.782456 -3.843293 -3.717361
43.480000 -3.771637 -3.831171 -3.709315
43.520000 -3.761041 -3.820668 -3.702325
43.560000 -3.750658 -3.812251 -3.695357
43.600000 -3.740517 -3.802419 -3.689183
43.640000 -3.731148 -3.792654 -3.680894
43.680000 -3.721977 -3.784221 -3.671837
43.720000 -3.713537 -3.773625 -3.663913
43.760000 -3.705791 -3.765033 -3.657738
43.800000 -3.698181 -3.757139 -3.651944
43.840000 -3.691851 -3.752088 -3.647898
43.880000 -3.685612 -3.744891 -3.643890
43.920000 -3.680260 -3.739042 -3.640892
43.960000 -3.675766 -3.734157 -3.638484
44.000000 -3.671317 -3.729374 -3.635336
44.040000 -3.668928 -3.726668 -3.635111
44.080000 -3.666553 -3.721871 -3.637206
44.120000 -3.665358 -3.722102 -3.639242
44.160000 -3.665335 -3.726573 -3.642426
44.200000 -3.665311 -3.725924 -3.646313
44.240000 -3.668018 -3.729314 -3.650605
44.280000 -3.670743 -3.730971 -3.655119
44.320000 -3.674660 -3.736888 -3.662728
44.360000 -3.679801 -3.744232 -3.668228
44.400000 -3.685004 -3.752226 -3.673241
44.440000 -3.692654 -3.762470 -3.681292
44.480000 -3.700441 -3.772342 -3.690628
44.520000 -3.709600 -3.783421 -3.703760
44.560000 -3.720216 -3.795948 -3.717909
44.600000 -3.731099 -3.807055 -3.726228
44.640000 -3.744681 -3.822007 -3.738160
44.680000 -3.758701 -3.839426 -3.754326
44.720000 -3.773874 -3.854145 -3.771751
44.760000 -3.790309 -3.871926 -3.787705
44.800000 -3.807390 -3.889234 -3.804653
44.840000 -3.826093 -3.910375 -3.822292
44.880000 -3.845638 -3.932270 -3.841883
44.920000 -3.866310 -3.954092 -3.863402
44.960000 -3.888233 -3.976763 -3.886480
45.000000 -3.911322 -4.000595 -3.909674
45.040000 -3.935373 -4.026092 -3.933984
45.080000 -3.960834 -4.053180 -3.959736
45.120000 -3.987320 -4.080636 -3.986211
45.160000 -4.014927 -4.108010 -4.013449
45.200000 -4.044409 -4.137075 -4.042927
45.240000 -4.073463 -4.166048 -4.072235
45.280000 -4.104600 -4.198474 -4.103682
45.320000 -4.136432 -4.232023 -4.135703
45.360000 -4.168939 -4.265163 -4.168295
45.400000 -4.204078 -4.298110 -4.203197
45.440000 -4.237615 -4.330916 -4.236544
45.480000 -4.273960 -4.366302 -4.272705
45.520000 -4.310855 -4.402443 -4.309327
45.560000 -4.348157 -4.437679 -4.346509
45.600000 -4.388966 -4.474975 -4.386389
45.640000 -4.426775 -4.509269 -4.423031
45.680000 -4.468191 -4.550614 -4.464404
45.720000 -4.509780 -4.591322 -4.503531
45.760000 -4.551157 -4.630638 -4.542680
45.800000 -4.596895 -4.675332 -4.586565
45.840000 -4.638044 -4.715664 -4.627857
45.880000 -4.683503 -4.760122 -4.672564
45.920000 -4.728966 -4.802852 -4.716369
45.960000 -4.773848 -4.843100 -4.758992
46.000000 -4.823909 -4.887398 -4.807039
46.040000 -4.867953 -4.928174 -4.852025
46.080000 -4.916973 -4.974761 -4.898812
46.120000 -4.965763 -5.021253 -4.944356
46.160000 -5.013504 -5.067800 -4.988959
46.200000 -5.067148 -5.118514 -5.038931
46.240000 -5.113460 -5.163677 -5.083052
46.280000 -5.165306 -5.212650 -5.133229
46.320000 -5.216731 -5.260351 -5.181365
46.360000 -5.266694 -5.308406 -5.228366
46.400000 -5.323161 -5.362449 -5.278873
46.440000 -5.371253 -5.409874 -5.323635
46.480000 -5.425341 -5.464203 -5.375351
46.520000 -5.478923 -5.517265 -5.423672
46.560000 -5.530790 -5.567663 -5.472843
46.600000 -5.589704 -5.625156 -5.528178
46.640000 -5.639509 -5.673534 -5.575166
46.680000 -5.695776 -5.727938 -5.628516
46.720000 -5.751532 -5.782362 -5.679415
46.760000 -5.805426 -5.834364 -5.728741
46.800000 -5.866969 -5.892558 -5.784251
46.840000 -5.918659 -5.945039 -5.832300
46.880000 -5.977344 -6.003667 -5.889001
46.920000 -6.035570 -6.063724 -5.943596
46.960000 -6.091831 -6.121103 -5.995664
47.000000 -6.156481 -6.186654 -6.054517
47.040000 -6.210649 -6.243331 -6.105773
47.080000 -6.272549 -6.308106 -6.165308
47.120000 -6.334125 -6.369999 -6.222912
47.160000 -6.393672 -6.429558 -6.279797
47.200000 -6.462702 -6.497851 -6.345499
47.240000 -6.520267 -6.554859 -6.400014
47.280000 -6.586646 -6.620497 -6.463113
47.320000 -6.652903 -6.686011 -6.529415
47.360000 -6.717028 -6.749185 -6.592892
47.400000 -6.792290 -6.825193 -6.667114
47.440000 -6.854337 -6.887757 -6.728349
47.480000 -6.926751 -6.962909 -6.799657
47.520000 -6.999159 -7.036577 -6.869681
47.560000 -7.068972 -7.107042 -6.937441
47.600000 -7.152198 -7.190763 -7.017765
47.640000 -7.219619 -7.258154 -7.083655
47.680000 -7.299466 -7.340352 -7.161363
47.720000 -7.379437 -7.427087 -7.239401
47.760000 -7.456051 -7.508116 -7.315027
47.800000 -7.549138 -7.603649 -7.407502
47.840000 -7.622811 -7.677229 -7.481106
47.880000 -7.711587 -7.765873 -7.570041
47.920000 -7.800725 -7.857614 -7.660117
47.960000 -7.885416 -7.944548 -7.747880
48.000000 -7.990724 -8.055422 -7.852918
48.040000 -8.071404 -8.140049 -7.933018
48.080000 -8.170572 -8.243212 -8.033259
48.120000 -8.270315 -8.346664 -8.136160
48.160000 -8.363775 -8.445091 -8.227061
48.200000 -8.483025 -8.576616 -8.349988
48.240000 -8.571112 -8.665369 -8.441624
48.280000 -8.681732 -8.775270 -8.551428
48.320000 -8.793265 -8.886370 -8.664749
48.360000 -8.895955 -8.991598 -8.770521
48.400000 -9.030702 -9.131706 -8.906032
48.440000 -9.126381 -9.229849 -9.002689
48.480000 -9.249276 -9.357055 -9.123250
48.520000 -9.373754 -9.489292 -9.244803
48.560000 -9.486249 -9.606631 -9.356595
48.600000 -9.638474 -9.767253 -9.508439
48.640000 -9.741886 -9.874068 -9.608294
48.680000 -9.877882 -10.015688 -9.738207
48.720000 -10.016493 -10.159910 -9.882109
48.760000 -10.139111 -10.289400 -9.997594
48.800000 -10.310598 -10.470644 -10.171430
48.840000 -10.421861 -10.585321 -10.284177
48.880000 -10.571827 -10.737513 -10.436868
48.920000 -10.725838 -10.901790 -10.594042
48.960000 -10.858554 -11.038036 -10.728979
49.000000 -11.050629 -11.232660 -10.924647
49.040000 -11.169358 -11.351862 -11.040370
49.080000 -11.333288 -11.525447 -11.198606
49.120000 -11.503290 -11.711141 -11.362477
49.160000 -11.645919 -11.865483 -11.504806
49.200000 -11.859712 -12.094880 -11.717956
49.240000 -11.985610 -12.224276 -11.844036
49.280000 -12.163625 -12.409426 -12.015684
49.320000 -12.350527 -12.607771 -12.194970
49.360000 -12.503245 -12.767858 -12.348832
49.400000 -12.740870 -13.026343 -12.590451
49.440000 -12.874612 -13.168365 -12.723846
49.480000 -13.068862 -13.383730 -12.914552
49.520000 -13.276458 -13.609085 -13.118236
49.560000 -13.441388 -13.783743 -13.286462
49.600000 -13.710560 -14.080553 -13.546126
