#Bolometric quasar luminosity functions from TRINITY Paper III (Fig. 2, Zhang+2024, MNRAS, 529, 2777)
#z: 8.0
#log10(Lbol [erg/s]) log10(QLF [Mpc^-3 dex^-1]) log10(QLF_16th [Mpc^-3 dex^-1]) log10(QLF_84th [Mpc^-3 dex^-1])
40.000000 -8.582155 -9.391161 -8.266383
40.040000 -8.565330 -9.370172 -8.248872
40.080000 -8.549132 -9.350153 -8.236801
40.120000 -8.532935 -9.329987 -8.220160
40.160000 -8.516760 -9.309732 -8.203440
40.200000 -8.501166 -9.289680 -8.189446
40.240000 -8.484885 -9.267573 -8.174524
40.280000 -8.469192 -9.242124 -8.160099
40.320000 -8.453324 -9.217169 -8.145589
40.360000 -8.437319 -9.195752 -8.131012
40.400000 -8.421884 -9.175341 -8.091023
40.440000 -8.405188 -9.149768 -8.065727
40.480000 -8.389111 -9.097595 -8.049252
40.520000 -8.372421 -9.033077 -8.031818
40.560000 -8.355209 -8.968654 -8.013563
40.600000 -8.338654 -8.895057 -7.996045
40.640000 -8.319350 -8.855945 -7.961563
40.680000 -8.300869 -8.795570 -7.929341
40.720000 -8.280322 -8.739633 -7.876244
40.760000 -8.258025 -8.684542 -7.775971
40.800000 -8.236817 -8.649946 -7.728921
40.840000 -8.206196 -8.590530 -7.592674
40.880000 -8.177592 -8.522045 -7.455237
40.920000 -8.139188 -8.411123 -7.264989
40.960000 -8.093507 -8.305811 -7.028078
41.000000 -8.052177 -8.238132 -6.879785
41.040000 -7.962671 -8.095210 -6.621425
41.080000 -7.888497 -7.941615 -6.507004
41.120000 -7.759246 -7.823929 -6.484916
41.160000 -7.613666 -7.717442 -6.451461
41.200000 -7.504826 -7.617995 -6.417300
41.240000 -7.349680 -7.516290 -6.427668
41.280000 -7.235605 -7.442127 -6.440822
41.320000 -7.192105 -7.400587 -6.455602
41.360000 -7.200155 -7.403694 -6.472192
41.400000 -7.208357 -7.402508 -6.489485
41.440000 -7.222119 -7.419428 -6.507919
41.480000 -7.236330 -7.425935 -6.527937
41.520000 -7.248489 -7.436646 -6.545924
41.560000 -7.258404 -7.435703 -6.561899
41.600000 -7.268551 -7.434933 -6.579213
41.640000 -7.275188 -7.432691 -6.593783
41.680000 -7.281928 -7.430533 -6.608910
41.720000 -7.286930 -7.429438 -6.605260
41.760000 -7.290133 -7.430761 -6.618998
41.800000 -7.293360 -7.449225 -6.620080
41.840000 -7.301842 -7.450670 -6.606755
41.880000 -7.310493 -7.441374 -6.609469
41.920000 -7.321017 -7.441775 -6.619156
41.960000 -7.333548 -7.448220 -6.623304
42.000000 -7.346451 -7.451093 -6.625990
42.040000 -7.351954 -7.447172 -6.634428
42.080000 -7.357527 -7.443747 -6.641815
42.120000 -7.361207 -7.445770 -6.659841
42.160000 -7.362945 -7.449362 -6.683988
42.200000 -7.364689 -7.446696 -6.711738
42.240000 -7.360826 -7.444407 -6.734577
42.280000 -7.356997 -7.442740 -6.726192
42.320000 -7.350262 -7.433780 -6.718309
42.360000 -7.340754 -7.432355 -6.709788
42.400000 -7.331450 -7.443022 -6.696186
42.440000 -7.314469 -7.443698 -6.686198
42.480000 -7.298128 -7.439556 -6.680880
42.520000 -7.279720 -7.430277 -6.662774
42.560000 -7.259523 -7.419271 -6.666874
42.600000 -7.240223 -7.418024 -6.676019
42.640000 -7.219341 -7.402291 -6.662716
42.680000 -7.199416 -7.397104 -6.644727
42.720000 -7.178811 -7.396446 -6.636908
42.760000 -7.157657 -7.393995 -6.632960
42.800000 -7.137487 -7.384692 -6.652431
42.840000 -7.116962 -7.379082 -6.665778
42.880000 -7.097364 -7.360603 -6.668289
42.920000 -7.075416 -7.347960 -6.659709
42.960000 -7.051499 -7.329847 -6.632285
43.000000 -7.028831 -7.315163 -6.606734
43.040000 -7.001766 -7.303235 -6.579186
43.080000 -6.976289 -7.309125 -6.553634
43.120000 -6.950439 -7.292185 -6.547267
43.160000 -6.924361 -7.293094 -6.515701
43.200000 -6.899761 -7.294188 -6.488255
43.240000 -6.873937 -7.276625 -6.493729
43.280000 -6.849562 -7.256491 -6.487582
43.320000 -6.824873 -7.234026 -6.467455
43.360000 -6.799992 -7.220583 -6.457899
43.400000 -6.776459 -7.200080 -6.450631
43.440000 -6.751833 -7.181973 -6.424793
43.480000 -6.728528 -7.164601 -6.400407
43.520000 -6.706044 -7.147070 -6.375752
43.560000 -6.684317 -7.128169 -6.364681
43.600000 -6.663626 -7.108863 -6.362976
43.640000 -6.642307 -7.088498 -6.335409
43.680000 -6.621986 -7.069047 -6.309495
43.720000 -6.601016 -7.046699 -6.285837
43.760000 -6.579529 -7.021931 -6.264447
43.800000 -6.559056 -6.998515 -6.252158
43.840000 -6.537541 -6.969503 -6.242050
43.880000 -6.517042 -6.946545 -6.236371
43.920000 -6.497257 -6.934989 -6.237829
43.960000 -6.478135 -6.920173 -6.232583
44.000000 -6.459820 -6.906624 -6.215902
44.040000 -6.444414 -6.882388 -6.209874
44.080000 -6.429535 -6.860107 -6.195065
44.120000 -6.416279 -6.836095 -6.185916
44.160000 -6.404515 -6.810696 -6.178525
44.200000 -6.393060 -6.786711 -6.179540
44.240000 -6.383860 -6.759567 -6.194788
44.280000 -6.374851 -6.742090 -6.196098
44.320000 -6.367507 -6.725954 -6.202373
44.360000 -6.361747 -6.713951 -6.203301
44.400000 -6.356063 -6.715951 -6.194295
44.440000 -6.353093 -6.714177 -6.180727
44.480000 -6.350144 -6.696590 -6.167647
44.520000 -6.348836 -6.689312 -6.156247
44.560000 -6.349156 -6.676363 -6.154562
44.600000 -6.349476 -6.667337 -6.141492
44.640000 -6.352132 -6.670053 -6.128620
44.680000 -6.354805 -6.674755 -6.131159
44.720000 -6.358883 -6.689374 -6.139844
44.760000 -6.364406 -6.700546 -6.143252
44.800000 -6.370001 -6.707073 -6.151577
44.840000 -6.378998 -6.716003 -6.160129
44.880000 -6.388186 -6.717310 -6.166939
44.920000 -6.399445 -6.722402 -6.182943
44.960000 -6.412937 -6.736593 -6.194127
45.000000 -6.426860 -6.743652 -6.204026
45.040000 -6.443790 -6.750295 -6.219706
45.080000 -6.461407 -6.768748 -6.236094
45.120000 -6.480644 -6.789979 -6.248594
45.160000 -6.501691 -6.812785 -6.257752
45.200000 -6.523810 -6.838576 -6.266209
45.240000 -6.548380 -6.859077 -6.284128
45.280000 -6.574423 -6.870645 -6.299120
45.320000 -6.601564 -6.892247 -6.323961
45.360000 -6.629912 -6.925310 -6.338453
45.400000 -6.660241 -6.961115 -6.367278
45.440000 -6.690661 -6.991710 -6.393425
45.480000 -6.723373 -7.025609 -6.415464
45.520000 -6.756740 -7.061628 -6.437974
45.560000 -6.790710 -7.095632 -6.467018
45.600000 -6.827565 -7.131616 -6.498636
45.640000 -6.862366 -7.166472 -6.533415
45.680000 -6.900200 -7.208565 -6.571224
45.720000 -6.938592 -7.250585 -6.607002
45.760000 -6.977367 -7.292053 -6.640161
45.800000 -7.019947 -7.337903 -6.676450
45.840000 -7.059196 -7.378665 -6.718723
45.880000 -7.102348 -7.422781 -6.758430
45.920000 -7.145682 -7.465782 -6.801381
45.960000 -7.188762 -7.507991 -6.843475
46.000000 -7.236590 -7.554752 -6.890897
46.040000 -7.279054 -7.596714 -6.931876
46.080000 -7.326125 -7.643592 -6.977905
46.120000 -7.373066 -7.690045 -7.020176
46.160000 -7.419183 -7.735290 -7.069404
46.200000 -7.470786 -7.785802 -7.120135
46.240000 -7.515265 -7.829553 -7.164281
46.280000 -7.564825 -7.878211 -7.213429
46.320000 -7.613879 -7.925708 -7.262140
46.360000 -7.661482 -7.971595 -7.309510
46.400000 -7.714953 -8.022922 -7.363716
46.440000 -7.760574 -8.068691 -7.410536
46.480000 -7.811556 -8.126727 -7.463891
46.520000 -7.861983 -8.184042 -7.525644
46.560000 -7.910815 -8.238195 -7.576977
46.600000 -7.965842 -8.300045 -7.636005
46.640000 -8.012759 -8.347522 -7.687726
46.680000 -8.065366 -8.394305 -7.743512
46.720000 -8.117512 -8.448141 -7.797976
46.760000 -8.168100 -8.503470 -7.852569
46.800000 -8.225367 -8.566900 -7.916393
46.840000 -8.274176 -8.618342 -7.970877
46.880000 -8.329173 -8.674836 -8.033194
46.920000 -8.383773 -8.729540 -8.095288
46.960000 -8.436751 -8.780292 -8.155454
47.000000 -8.497101 -8.838845 -8.227439
47.040000 -8.548324 -8.887454 -8.287841
47.080000 -8.606408 -8.943625 -8.358035
47.120000 -8.664149 -9.005449 -8.428032
47.160000 -8.720135 -9.065380 -8.492717
47.200000 -8.784422 -9.131104 -8.571505
47.240000 -8.838702 -9.180995 -8.634060
47.280000 -8.900748 -9.237381 -8.696381
47.320000 -8.962546 -9.299314 -8.759386
47.360000 -9.022414 -9.360780 -8.821743
47.400000 -9.091875 -9.431026 -8.903265
47.440000 -9.150058 -9.485161 -8.970326
47.480000 -9.217258 -9.548389 -9.041087
47.520000 -9.284230 -9.622774 -9.105743
47.560000 -9.348831 -9.694559 -9.168115
47.600000 -9.424749 -9.773708 -9.244822
47.640000 -9.487294 -9.838120 -9.308812
47.680000 -9.560387 -9.913791 -9.381033
47.720000 -9.633335 -9.992415 -9.448074
47.760000 -9.703397 -10.073402 -9.517277
47.800000 -9.786978 -10.164959 -9.605143
47.840000 -9.854303 -10.232886 -9.674120
47.880000 -9.934016 -10.330236 -9.757527
47.920000 -10.013653 -10.421876 -9.832946
47.960000 -10.089637 -10.496675 -9.904121
48.000000 -10.181794 -10.587121 -9.989322
48.040000 -10.254345 -10.657913 -10.061950
48.080000 -10.341494 -10.750152 -10.145702
48.120000 -10.428714 -10.852251 -10.229017
48.160000 -10.511309 -10.947078 -10.312112
48.200000 -10.613391 -11.056041 -10.405966
48.240000 -10.691739 -11.137223 -10.489207
48.280000 -10.787404 -11.234491 -10.592406
48.320000 -10.883344 -11.331692 -10.679846
48.360000 -10.973298 -11.424239 -10.760700
48.400000 -11.086887 -11.548133 -10.866580
48.440000 -11.171512 -11.645116 -10.952170
48.480000 -11.276719 -11.770145 -11.043366
48.520000 -11.382652 -11.869801 -11.133836
48.560000 -11.481005 -11.962368 -11.220140
48.600000 -11.608361 -12.096385 -11.330941
48.640000 -11.701211 -12.194948 -11.420870
48.680000 -11.819468 -12.322681 -11.536191
48.720000 -11.940075 -12.456116 -11.641388
48.760000 -12.051919 -12.571931 -11.743667
48.800000 -12.202950 -12.735282 -11.887290
48.840000 -12.310307 -12.846191 -11.983459
48.880000 -12.453235 -12.985513 -12.111918
48.920000 -12.602108 -13.127224 -12.255590
48.960000 -12.738003 -13.258377 -12.387466
49.000000 -12.936873 -13.455679 -12.571302
49.040000 -13.062785 -13.580267 -12.680140
49.080000 -13.240827 -13.762058 -12.827925
49.120000 -13.428774 -13.953859 -12.997346
49.160000 -13.584828 -14.108206 -13.138115
49.200000 -13.830760 -14.360227 -13.330280
49.240000 -13.969469 -14.515625 -13.475445
49.280000 -14.174485 -14.733788 -13.692759
49.320000 -14.399402 -14.980729 -13.913808
49.360000 -14.582716 -15.195456 -14.113213
49.400000 -14.906163 -15.578245 -14.452953
49.440000 -15.074026 -15.738282 -14.616161
49.480000 -15.351266 -16.030902 -14.878862
49.520000 -15.690472 -16.414731 -15.187029
49.560000 -15.924490 -16.650365 -15.396944
49.600000 -16.468169 -17.245032 -15.854725
