#Bolometric quasar luminosity functions from TRINITY Paper III (Fig. 2, Zhang+2024, MNRAS, 529, 2777)
#z: 3.0
#log10(Lbol [erg/s]) log10(QLF [Mpc^-3 dex^-1]) log10(QLF_16th [Mpc^-3 dex^-1]) log10(QLF_84th [Mpc^-3 dex^-1])
40.000000 -4.986957 -5.398771 -4.892046
40.040000 -4.975909 -5.383938 -4.880974
40.080000 -4.965135 -5.369599 -4.870540
40.120000 -4.954285 -5.353459 -4.860162
40.160000 -4.943370 -5.336741 -4.850774
40.200000 -4.932723 -5.320656 -4.841878
40.240000 -4.921653 -5.305725 -4.832660
40.280000 -4.910859 -5.291291 -4.823635
40.320000 -4.899928 -5.276515 -4.814499
40.360000 -4.888878 -5.261447 -4.804057
40.400000 -4.878102 -5.246885 -4.792193
40.440000 -4.866684 -5.230704 -4.773459
40.480000 -4.855560 -5.210697 -4.762684
40.520000 -4.844178 -5.196075 -4.750194
40.560000 -4.832566 -5.181063 -4.736214
40.600000 -4.821256 -5.164610 -4.723217
40.640000 -4.808886 -5.133445 -4.708028
40.680000 -4.796859 -5.104419 -4.693367
40.720000 -4.784184 -5.062241 -4.676496
40.760000 -4.770926 -5.021002 -4.651662
40.800000 -4.758061 -4.977052 -4.635324
40.840000 -4.742413 -4.953455 -4.627756
40.880000 -4.727310 -4.928327 -4.618449
40.920000 -4.709839 -4.899394 -4.601648
40.960000 -4.690294 -4.873813 -4.584951
41.000000 -4.671592 -4.844691 -4.569492
41.040000 -4.649367 -4.817615 -4.556523
41.080000 -4.628224 -4.796773 -4.545514
41.120000 -4.612217 -4.786523 -4.536707
41.160000 -4.600826 -4.782137 -4.528708
41.200000 -4.589725 -4.779034 -4.521908
41.240000 -4.582124 -4.774779 -4.514119
41.280000 -4.574654 -4.770218 -4.506467
41.320000 -4.567160 -4.764360 -4.502863
41.360000 -4.559646 -4.755588 -4.496577
41.400000 -4.552260 -4.746994 -4.489759
41.440000 -4.544220 -4.736980 -4.482291
41.480000 -4.536325 -4.729402 -4.474949
41.520000 -4.528202 -4.724887 -4.464207
41.560000 -4.519865 -4.719675 -4.455841
41.600000 -4.511686 -4.714529 -4.447983
41.640000 -4.502784 -4.707340 -4.439971
41.680000 -4.494061 -4.699162 -4.430716
41.720000 -4.485073 -4.689370 -4.420719
41.760000 -4.475840 -4.676825 -4.410088
41.800000 -4.466800 -4.664382 -4.398693
41.840000 -4.456988 -4.650033 -4.387278
41.880000 -4.447393 -4.636146 -4.379974
41.920000 -4.437423 -4.621555 -4.369406
41.960000 -4.427109 -4.606340 -4.359752
42.000000 -4.417034 -4.592934 -4.351922
42.040000 -4.406085 -4.580356 -4.340635
42.080000 -4.395406 -4.568137 -4.329138
42.120000 -4.384411 -4.555478 -4.315109
42.160000 -4.373131 -4.542428 -4.301848
42.200000 -4.362137 -4.529761 -4.290212
42.240000 -4.350327 -4.515961 -4.278288
42.280000 -4.338829 -4.501219 -4.266683
42.320000 -4.326992 -4.485607 -4.252833
42.360000 -4.314849 -4.469817 -4.242468
42.400000 -4.303037 -4.454336 -4.230365
42.440000 -4.290248 -4.440962 -4.216155
42.480000 -4.277824 -4.426260 -4.203318
42.520000 -4.264980 -4.408636 -4.190099
42.560000 -4.251762 -4.390598 -4.175303
42.600000 -4.238934 -4.373279 -4.160900
42.640000 -4.224770 -4.357339 -4.145464
42.680000 -4.211053 -4.343470 -4.130491
42.720000 -4.196924 -4.326278 -4.115147
42.760000 -4.182434 -4.309548 -4.099541
42.800000 -4.168413 -4.294182 -4.084477
42.840000 -4.153250 -4.277325 -4.068346
42.880000 -4.138600 -4.261098 -4.052427
42.920000 -4.123538 -4.244357 -4.037269
42.960000 -4.108124 -4.226830 -4.022123
43.000000 -4.093239 -4.209616 -4.005559
43.040000 -4.077260 -4.190825 -3.989540
43.080000 -4.061848 -4.172817 -3.972160
43.120000 -4.046205 -4.155318 -3.958152
43.160000 -4.030374 -4.137134 -3.944499
43.200000 -4.015100 -4.120081 -3.930474
43.240000 -3.999114 -4.103686 -3.917216
43.280000 -3.983696 -4.087954 -3.904351
43.320000 -3.968344 -4.072336 -3.890354
43.360000 -3.953071 -4.055017 -3.876888
43.400000 -3.938317 -4.037070 -3.863518
43.440000 -3.923351 -4.018799 -3.851410
43.480000 -3.908884 -4.001615 -3.839631
43.520000 -3.894787 -3.986280 -3.828668
43.560000 -3.881040 -3.972632 -3.818470
43.600000 -3.867715 -3.959402 -3.808006
43.640000 -3.855597 -3.946515 -3.796324
43.680000 -3.843808 -3.934000 -3.785196
43.720000 -3.833029 -3.922128 -3.775595
43.760000 -3.823193 -3.910855 -3.768847
43.800000 -3.813575 -3.898374 -3.760088
43.840000 -3.805230 -3.886373 -3.753127
43.880000 -3.797043 -3.876579 -3.749785
43.920000 -3.789996 -3.870595 -3.746873
43.960000 -3.784039 -3.861008 -3.744759
44.000000 -3.778162 -3.856635 -3.743737
44.040000 -3.774821 -3.850163 -3.745009
44.080000 -3.771505 -3.846162 -3.746242
44.120000 -3.769615 -3.841329 -3.745413
44.160000 -3.769131 -3.840091 -3.745959
44.200000 -3.768648 -3.836909 -3.746289
44.240000 -3.771057 -3.842160 -3.749333
44.280000 -3.773479 -3.846684 -3.757305
44.320000 -3.777355 -3.852099 -3.763509
44.360000 -3.782725 -3.858150 -3.771458
44.400000 -3.788162 -3.863742 -3.777499
44.440000 -3.796406 -3.873402 -3.788114
44.480000 -3.804809 -3.886288 -3.798730
44.520000 -3.814629 -3.898526 -3.809753
44.560000 -3.825961 -3.912411 -3.823852
44.600000 -3.837596 -3.923922 -3.837779
44.640000 -3.851821 -3.938024 -3.854466
44.680000 -3.866526 -3.952697 -3.870585
44.720000 -3.882377 -3.969831 -3.883625
44.760000 -3.899482 -3.989494 -3.899869
44.800000 -3.917289 -4.009970 -3.919258
44.840000 -3.936353 -4.030045 -3.937285
44.880000 -3.956293 -4.052104 -3.959750
44.920000 -3.977246 -4.076355 -3.981406
44.960000 -3.999319 -4.100614 -4.002938
45.000000 -4.022574 -4.125988 -4.028040
45.040000 -4.046536 -4.150806 -4.052647
45.080000 -4.071898 -4.177097 -4.078733
45.120000 -4.098041 -4.203906 -4.105859
45.160000 -4.125014 -4.231226 -4.133258
45.200000 -4.153775 -4.260380 -4.162084
45.240000 -4.182221 -4.288496 -4.190193
45.280000 -4.212661 -4.318559 -4.219032
45.320000 -4.243808 -4.349069 -4.249084
45.360000 -4.275653 -4.379963 -4.280685
45.400000 -4.310018 -4.414179 -4.314768
45.440000 -4.342867 -4.446745 -4.347731
45.480000 -4.378404 -4.481989 -4.383545
45.520000 -4.414498 -4.518397 -4.419869
45.560000 -4.451023 -4.554978 -4.456558
45.600000 -4.490903 -4.594406 -4.496636
45.640000 -4.528104 -4.630782 -4.533247
45.680000 -4.568793 -4.668200 -4.572878
45.720000 -4.609837 -4.707530 -4.613674
45.760000 -4.650929 -4.747890 -4.654173
45.800000 -4.696320 -4.792857 -4.699572
45.840000 -4.737587 -4.833033 -4.739638
45.880000 -4.783192 -4.876290 -4.783779
45.920000 -4.828994 -4.921366 -4.828033
45.960000 -4.874472 -4.964914 -4.871842
46.000000 -4.925275 -5.013183 -4.919670
46.040000 -4.970277 -5.055375 -4.964338
46.080000 -5.020487 -5.102939 -5.011879
46.120000 -5.070692 -5.149637 -5.059491
46.160000 -5.120092 -5.196296 -5.106304
46.200000 -5.175841 -5.247616 -5.158480
46.240000 -5.224168 -5.292523 -5.206052
46.280000 -5.278554 -5.342642 -5.258173
46.320000 -5.332676 -5.394823 -5.309769
46.360000 -5.385399 -5.448017 -5.359502
46.400000 -5.445419 -5.508609 -5.417013
46.440000 -5.496418 -5.558900 -5.465896
46.480000 -5.554212 -5.610116 -5.520981
46.520000 -5.611583 -5.662649 -5.575638
46.560000 -5.667104 -5.715796 -5.627275
46.600000 -5.730779 -5.776503 -5.686859
46.640000 -5.784064 -5.828491 -5.737810
46.680000 -5.844812 -5.887558 -5.791671
46.720000 -5.905027 -5.949337 -5.848120
46.760000 -5.963009 -6.008469 -5.902088
46.800000 -6.029942 -6.072918 -5.966049
46.840000 -6.085344 -6.126291 -6.019078
46.880000 -6.148860 -6.188435 -6.079280
46.920000 -6.211817 -6.250124 -6.138310
46.960000 -6.272267 -6.309577 -6.193710
47.000000 -6.342513 -6.378479 -6.259325
47.040000 -6.400183 -6.435475 -6.315742
47.080000 -6.466700 -6.501490 -6.376097
47.120000 -6.532720 -6.567083 -6.436485
47.160000 -6.596042 -6.630200 -6.494974
47.200000 -6.670199 -6.704188 -6.562648
47.240000 -6.730675 -6.764793 -6.621050
47.280000 -6.800956 -6.833701 -6.686338
47.320000 -6.870871 -6.902677 -6.750344
47.360000 -6.937887 -6.970009 -6.813569
47.400000 -7.017164 -7.049730 -6.888080
47.440000 -7.081252 -7.114578 -6.950774
47.480000 -7.156462 -7.191216 -7.021327
47.520000 -7.231455 -7.267776 -7.091618
47.560000 -7.303188 -7.340642 -7.160314
47.600000 -7.389160 -7.428441 -7.243285
47.640000 -7.457862 -7.498050 -7.310176
47.680000 -7.539514 -7.581462 -7.388823
47.720000 -7.621122 -7.665235 -7.467732
47.760000 -7.698835 -7.742661 -7.544337
47.800000 -7.793551 -7.842561 -7.639048
47.840000 -7.867744 -7.916549 -7.714056
47.880000 -7.957278 -8.007291 -7.802965
47.920000 -8.046949 -8.102744 -7.892189
47.960000 -8.131666 -8.191597 -7.977037
48.000000 -8.237014 -8.301815 -8.083257
48.040000 -8.317384 -8.384930 -8.165581
48.080000 -8.416083 -8.488300 -8.267088
48.120000 -8.515144 -8.594275 -8.368486
48.160000 -8.607666 -8.692591 -8.461152
48.200000 -8.725389 -8.818901 -8.577303
48.240000 -8.812489 -8.909598 -8.664486
48.280000 -8.921553 -9.021839 -8.776050
48.320000 -9.031385 -9.135048 -8.888855
48.360000 -9.132592 -9.238983 -8.990846
48.400000 -9.264788 -9.385233 -9.121761
48.440000 -9.359063 -9.487409 -9.214498
48.480000 -9.479646 -9.610611 -9.338378
48.520000 -9.601580 -9.737027 -9.459273
48.560000 -9.712006 -9.849860 -9.572076
48.600000 -9.860452 -10.001050 -9.718262
48.640000 -9.961985 -10.103804 -9.819916
48.680000 -10.094740 -10.238662 -9.953030
48.720000 -10.229674 -10.375726 -10.083806
48.760000 -10.349387 -10.496391 -10.198537
48.800000 -10.515213 -10.664062 -10.353979
48.840000 -10.624022 -10.775605 -10.464086
48.880000 -10.769548 -10.931477 -10.605353
48.920000 -10.918568 -11.094535 -10.745196
48.960000 -11.047985 -11.231020 -10.874603
49.000000 -11.233174 -11.436394 -11.059774
49.040000 -11.349506 -11.554333 -11.176008
49.080000 -11.508877 -11.715586 -11.332852
49.120000 -11.673648 -11.882293 -11.489213
49.160000 -11.813248 -12.022702 -11.626130
49.200000 -12.020235 -12.231446 -11.828267
49.240000 -12.143981 -12.360461 -11.950532
49.280000 -12.317697 -12.546176 -12.123438
49.320000 -12.499468 -12.736677 -12.304859
49.360000 -12.649464 -12.900154 -12.456579
49.400000 -12.880474 -13.146339 -12.684136
49.440000 -13.012508 -13.287819 -12.813646
49.480000 -13.203147 -13.499021 -13.001302
49.520000 -13.406434 -13.728388 -13.201363
49.560000 -13.569983 -13.907091 -13.362938
49.600000 -13.835422 -14.218018 -13.623130
