#Quasar bolometric luminosity function in different bins of deviation from the SMBH mass--galaxy mass (BHSM) relation
#from TRINITY PaperIII (Fig. 7, Zhang+2024, MNRAS, 529, 2777)
#z: 2.00
#log10(Lbol [erg/s])(0) log10(QLF_total [Mpc^-3 dex^-1])(1) log10(QLF(offset < -0.3 dex) [Mpc^-3 dex^-1])(2) log10(QLF(offset < -0.3 dex)_16th [Mpc^-3 dex^-1])(3) log10(QLF(offset < -0.3 dex)_84th [Mpc^-3 dex^-1])(4)
#log10(QLF(-0.3 dex < offset < 0.3 dex) [Mpc^-3 dex^-1])(5) log10(QLF(-0.3 dex < offset < 0.3 dex)_16th [Mpc^-3 dex^-1])(6) log10(QLF(-0.3 dex < offset < 0.3 dex)_84th [Mpc^-3 dex^-1])(7)
#log10(QLF(offset > 0.3 dex) [Mpc^-3 dex^-1])(8) log10(QLF(offset > 0.3 dex)_16th [Mpc^-3 dex^-1])(9) log10(QLF(offset > 0.3 dex)_84th [Mpc^-3 dex^-1])(10)
41.193820 -3.202498 -4.291662 -4.584367 -4.305636 -4.172834 -4.515252 -4.117726 -5.291763 -5.696759 -5.323113
41.233820 -3.193288 -4.282486 -4.571432 -4.295412 -4.163633 -4.502198 -4.107947 -5.282453 -5.680905 -5.312859
41.273820 -3.184268 -4.273528 -4.559834 -4.285368 -4.154614 -4.489264 -4.098374 -5.273329 -5.665339 -5.302773
41.313820 -3.175194 -4.264497 -4.549217 -4.275262 -4.145545 -4.476257 -4.088740 -5.264157 -5.649709 -5.292463
41.353820 -3.166072 -4.255403 -4.538483 -4.265111 -4.136435 -4.463190 -4.079046 -5.254930 -5.633984 -5.281935
41.393820 -3.157138 -4.246525 -4.527875 -4.255127 -4.127504 -4.450000 -4.069509 -5.245893 -5.618684 -5.271518
41.433820 -3.147906 -4.237322 -4.517016 -4.244851 -4.118282 -4.436466 -4.059502 -5.236562 -5.601525 -5.260638
41.473820 -3.138866 -4.228348 -4.506214 -4.234710 -4.109242 -4.422764 -4.049587 -5.227415 -5.584125 -5.249792
41.513820 -3.129727 -4.219206 -4.495357 -4.224490 -4.100122 -4.408793 -4.039383 -5.218182 -5.567416 -5.238640
41.553820 -3.120497 -4.210038 -4.483428 -4.214135 -4.090901 -4.394337 -4.028932 -5.208805 -5.550592 -5.227176
41.593820 -3.111460 -4.201069 -4.469712 -4.204022 -4.081876 -4.379859 -4.019008 -5.199595 -5.533168 -5.212510
41.633820 -3.101959 -4.191672 -4.454966 -4.192162 -4.072395 -4.363049 -4.008803 -5.189823 -5.514236 -5.195430
41.673820 -3.092661 -4.182521 -4.440504 -4.179223 -4.063110 -4.347235 -3.998642 -5.180225 -5.494608 -5.178594
41.713820 -3.083177 -4.173224 -4.425312 -4.166076 -4.053636 -4.329171 -3.988740 -5.170390 -5.478353 -5.160885
41.753820 -3.073524 -4.163755 -4.410439 -4.152611 -4.044009 -4.310525 -3.979544 -5.160308 -5.460733 -5.144905
41.793820 -3.064080 -4.154553 -4.395330 -4.139471 -4.034592 -4.293511 -3.972191 -5.150338 -5.441139 -5.133996
41.833820 -3.053894 -4.144645 -4.379587 -4.125348 -4.024453 -4.276039 -3.964027 -5.139468 -5.420009 -5.125690
41.873820 -3.043942 -4.135076 -4.369682 -4.111734 -4.014527 -4.256527 -3.956247 -5.128778 -5.397932 -5.113163
41.913820 -3.033570 -4.125092 -4.359014 -4.101139 -4.004220 -4.235430 -3.948031 -5.117456 -5.374260 -5.093648
41.953820 -3.022812 -4.114836 -4.343310 -4.087118 -3.993534 -4.214535 -3.939589 -5.105536 -5.349118 -5.072485
41.993820 -3.012313 -4.104972 -4.325140 -4.070614 -3.983109 -4.194545 -3.930971 -5.093661 -5.321405 -5.055114
42.033820 -3.000318 -4.093716 -4.305393 -4.052989 -3.971221 -4.176128 -3.918558 -5.079971 -5.294991 -5.040812
42.073820 -2.988645 -4.083062 -4.288929 -4.038100 -3.959642 -4.160803 -3.906509 -5.066241 -5.273330 -5.030176
42.113820 -2.976512 -4.072053 -4.274351 -4.024868 -3.947639 -4.147621 -3.894247 -5.051723 -5.255230 -5.023409
42.153820 -2.963966 -4.060885 -4.262356 -4.012824 -3.935243 -4.128742 -3.882761 -5.036322 -5.242776 -5.016966
42.193820 -2.951772 -4.050062 -4.248795 -4.002427 -3.923224 -4.112710 -3.871988 -5.021184 -5.234392 -5.011745
42.233820 -2.941215 -4.040915 -4.237056 -3.993687 -3.912839 -4.099458 -3.864728 -5.007669 -5.225080 -5.002837
42.273820 -2.930909 -4.031697 -4.225436 -3.985192 -3.902551 -4.087992 -3.857620 -4.995663 -5.219012 -4.988777
42.313820 -2.921780 -4.023052 -4.214017 -3.976227 -3.893443 -4.076460 -3.850458 -4.985719 -5.211757 -4.977953
42.353820 -2.913759 -4.015051 -4.202998 -3.967809 -3.885338 -4.066138 -3.843761 -4.978089 -5.199470 -4.971322
42.393820 -2.905884 -4.006756 -4.190510 -3.958355 -3.877435 -4.055224 -3.836219 -4.970967 -5.192097 -4.965596
42.433820 -2.898336 -3.998776 -4.177894 -3.947561 -3.869775 -4.044648 -3.828787 -4.964616 -5.186271 -4.960585
42.473820 -2.890917 -3.990712 -4.165984 -3.938340 -3.862289 -4.035360 -3.821334 -4.958486 -5.180152 -4.954883
42.513820 -2.883408 -3.982617 -4.153699 -3.925353 -3.854641 -4.025659 -3.814017 -4.952545 -5.173308 -4.949469
42.553820 -2.875816 -3.974331 -4.141162 -3.912797 -3.846942 -4.015831 -3.804652 -4.946528 -5.165946 -4.943439
42.593820 -2.868355 -3.966249 -4.129059 -3.900352 -3.839356 -4.005782 -3.796123 -4.940631 -5.158002 -4.937403
42.633820 -2.860517 -3.957985 -4.116457 -3.888693 -3.831398 -3.995625 -3.787416 -4.934046 -5.149588 -4.930100
42.673820 -2.852818 -3.949639 -4.104271 -3.877514 -3.823589 -3.984916 -3.778763 -4.927886 -5.140717 -4.920832
42.713820 -2.845012 -3.941399 -4.098002 -3.866360 -3.815663 -3.973099 -3.769988 -4.921355 -5.131491 -4.910226
42.753820 -2.837106 -3.932930 -4.092000 -3.855312 -3.807653 -3.961360 -3.761574 -4.914838 -5.121670 -4.898343
42.793820 -2.829342 -3.924802 -4.086439 -3.846810 -3.799800 -3.949562 -3.753214 -4.908092 -5.113048 -4.890377
42.833820 -2.821182 -3.916066 -4.080038 -3.837971 -3.791602 -3.937371 -3.742810 -4.901018 -5.102878 -4.883263
42.873820 -2.813172 -3.907560 -4.073691 -3.829784 -3.783580 -3.924990 -3.732428 -4.893835 -5.092521 -4.871944
42.913820 -2.805048 -3.899058 -4.066049 -3.821395 -3.775433 -3.912318 -3.721934 -4.886415 -5.081901 -4.860062
42.953820 -2.796820 -3.890481 -4.056676 -3.813359 -3.767197 -3.899701 -3.712939 -4.878774 -5.070792 -4.851257
42.993820 -2.788745 -3.882092 -4.044564 -3.803087 -3.759147 -3.888872 -3.704738 -4.871061 -5.060018 -4.842460
43.033820 -2.780306 -3.873153 -4.032034 -3.793040 -3.750804 -3.877302 -3.696130 -4.862906 -5.049670 -4.830850
43.073820 -2.772029 -3.864609 -4.020237 -3.782692 -3.742622 -3.863516 -3.687700 -4.854553 -5.040660 -4.821407
43.113820 -2.763655 -3.856042 -4.008499 -3.772123 -3.734274 -3.849957 -3.679271 -4.846347 -5.031542 -4.812550
43.153820 -2.755192 -3.847348 -3.997193 -3.761609 -3.725853 -3.835875 -3.671078 -4.838026 -5.021624 -4.803343
43.193820 -2.746891 -3.838996 -3.985943 -3.751171 -3.717463 -3.823070 -3.663285 -4.830269 -5.011032 -4.794146
43.233820 -2.738274 -3.830209 -3.975165 -3.740619 -3.708782 -3.811241 -3.653400 -4.822249 -5.000240 -4.783946
43.273820 -2.729824 -3.821904 -3.964571 -3.729382 -3.700141 -3.799486 -3.642328 -4.814564 -4.989048 -4.774160
43.313820 -2.721305 -3.813297 -3.954108 -3.718879 -3.691497 -3.787456 -3.631469 -4.806833 -4.977517 -4.762752
43.353820 -2.712725 -3.804840 -3.943093 -3.707492 -3.682787 -3.775595 -3.619224 -4.798742 -4.965721 -4.752094
43.393820 -2.704311 -3.796587 -3.932377 -3.697341 -3.674218 -3.763605 -3.611286 -4.790881 -4.953742 -4.741212
43.433820 -2.695640 -3.788136 -3.921103 -3.685923 -3.665388 -3.751758 -3.601839 -4.782697 -4.940687 -4.729773
43.473820 -2.687140 -3.779887 -3.909964 -3.675929 -3.656715 -3.739826 -3.593518 -4.774705 -4.928995 -4.719787
43.513820 -2.678619 -3.771440 -3.901029 -3.665493 -3.648103 -3.727542 -3.585512 -4.766546 -4.917689 -4.708346
43.553820 -2.670084 -3.763544 -3.893451 -3.655045 -3.639379 -3.715408 -3.577636 -4.757994 -4.905700 -4.699261
43.593820 -2.661714 -3.755801 -3.886247 -3.646688 -3.630803 -3.703218 -3.569883 -4.749718 -4.894034 -4.687793
43.633820 -2.653152 -3.747837 -3.878551 -3.637165 -3.622083 -3.691348 -3.561609 -4.741042 -4.881818 -4.676537
43.673820 -2.644756 -3.740021 -3.872085 -3.628780 -3.613519 -3.681480 -3.551265 -4.732618 -4.870032 -4.664500
43.713820 -2.636364 -3.732078 -3.864857 -3.619441 -3.605060 -3.671062 -3.540384 -4.723874 -4.857786 -4.652665
43.753820 -2.627978 -3.724640 -3.858081 -3.611360 -3.596460 -3.659838 -3.531715 -4.715130 -4.850051 -4.641023
43.793820 -2.619752 -3.717408 -3.850889 -3.599386 -3.588028 -3.651194 -3.521954 -4.706431 -4.844396 -4.628576
43.833820 -2.611485 -3.710322 -3.844281 -3.589217 -3.579573 -3.640775 -3.512226 -4.697314 -4.838226 -4.617374
43.873820 -2.603372 -3.703708 -3.838216 -3.577982 -3.571151 -3.628256 -3.501734 -4.688498 -4.831295 -4.606281
43.913820 -2.595302 -3.696281 -3.831585 -3.568945 -3.563067 -3.618751 -3.491876 -4.679508 -4.819594 -4.594694
43.953820 -2.587274 -3.689807 -3.825707 -3.562095 -3.554752 -3.608877 -3.482025 -4.670597 -4.808042 -4.582765
43.993820 -2.579391 -3.682650 -3.818768 -3.556175 -3.546860 -3.596747 -3.472429 -4.661652 -4.796275 -4.573818
44.033820 -2.571429 -3.676298 -3.813315 -3.549984 -3.538691 -3.585456 -3.462975 -4.652320 -4.784423 -4.566440
44.073820 -2.563610 -3.669738 -3.807328 -3.545590 -3.530689 -3.573845 -3.456147 -4.643551 -4.773018 -4.556177
44.113820 -2.555888 -3.663505 -3.801986 -3.540023 -3.522688 -3.563315 -3.449436 -4.635034 -4.761561 -4.546557
44.153820 -2.548260 -3.657095 -3.795981 -3.535405 -3.514861 -3.551571 -3.442396 -4.626617 -4.749785 -4.536869
44.193820 -2.540765 -3.650267 -3.789685 -3.530981 -3.507334 -3.541249 -3.433406 -4.618296 -4.737950 -4.527839
44.233820 -2.533384 -3.644978 -3.785049 -3.526903 -3.499612 -3.531547 -3.423232 -4.609576 -4.725985 -4.518131
44.273820 -2.526126 -3.638761 -3.779947 -3.525362 -3.492230 -3.523710 -3.414845 -4.601425 -4.714376 -4.507557
44.313820 -2.518948 -3.633592 -3.775146 -3.521041 -3.484866 -3.514510 -3.405508 -4.592267 -4.702991 -4.496552
44.353820 -2.511848 -3.627007 -3.768202 -3.516733 -3.477724 -3.505167 -3.398512 -4.584629 -4.692299 -4.485466
44.393820 -2.504862 -3.621444 -3.763231 -3.510711 -3.470638 -3.497765 -3.390192 -4.576100 -4.682930 -4.474491
44.433820 -2.498015 -3.616835 -3.757584 -3.506809 -3.463323 -3.490672 -3.383273 -4.568422 -4.675493 -4.462958
44.473820 -2.491273 -3.612310 -3.753266 -3.505370 -3.456256 -3.482349 -3.376678 -4.560173 -4.668231 -4.453341
44.513820 -2.484753 -3.608349 -3.748648 -3.500331 -3.449436 -3.474433 -3.370140 -4.551563 -4.659939 -4.443148
44.553820 -2.478446 -3.603800 -3.741791 -3.498268 -3.442918 -3.468043 -3.363711 -4.543863 -4.652708 -4.434260
44.593820 -2.472230 -3.600311 -3.737866 -3.494707 -3.436383 -3.459663 -3.357484 -4.535473 -4.644420 -4.423009
44.633820 -2.466340 -3.596776 -3.734591 -3.499386 -3.430036 -3.453942 -3.352823 -4.528649 -4.638041 -4.413721
44.673820 -2.460530 -3.594579 -3.731727 -3.507542 -3.423778 -3.446892 -3.346945 -4.520172 -4.630845 -4.402696
44.713820 -2.454968 -3.590592 -3.732248 -3.517687 -3.418135 -3.441436 -3.341051 -4.512902 -4.624448 -4.392573
44.753820 -2.449647 -3.587513 -3.732766 -3.520450 -3.412724 -3.436099 -3.335109 -4.505041 -4.617979 -4.382953
44.793820 -2.444391 -3.585492 -3.732134 -3.524511 -3.406997 -3.434302 -3.330583 -4.497859 -4.612047 -4.373666
44.833820 -2.439725 -3.584810 -3.734563 -3.530944 -3.401669 -3.427869 -3.327545 -4.491275 -4.606947 -4.363724
44.873820 -2.435109 -3.584993 -3.738430 -3.531953 -3.396463 -3.422643 -3.323115 -4.483420 -4.600551 -4.353130
44.913820 -2.430941 -3.587016 -3.739833 -3.537532 -3.391307 -3.423729 -3.321720 -4.476309 -4.594923 -4.346201
44.953820 -2.427210 -3.589920 -3.743863 -3.551071 -3.386729 -3.421492 -3.318742 -4.468556 -4.587933 -4.339671
44.993820 -2.423510 -3.592522 -3.748267 -3.553243 -3.382171 -3.417512 -3.318093 -4.461449 -4.581079 -4.332619
45.033820 -2.420903 -3.596099 -3.748531 -3.563988 -3.378945 -3.413544 -3.316628 -4.454573 -4.575368 -4.324959
45.073820 -2.418312 -3.600242 -3.755905 -3.576287 -3.375518 -3.410640 -3.316897 -4.448264 -4.569645 -4.319936
45.113820 -2.416377 -3.606667 -3.765277 -3.586219 -3.372569 -3.411008 -3.315464 -4.441820 -4.560876 -4.313831
45.153820 -2.415089 -3.614905 -3.781850 -3.599664 -3.370043 -3.410671 -3.316303 -4.436054 -4.551847 -4.308923
45.193820 -2.413806 -3.624763 -3.799871 -3.609033 -3.367284 -3.411515 -3.313972 -4.430023 -4.544905 -4.305105
45.233820 -2.414010 -3.636607 -3.815518 -3.618976 -3.366006 -3.415486 -3.314963 -4.425378 -4.539925 -4.301575
45.273820 -2.414214 -3.649463 -3.824316 -3.633555 -3.364756 -3.417921 -3.315270 -4.420030 -4.536443 -4.299483
45.313820 -2.415374 -3.660383 -3.834151 -3.649857 -3.365366 -3.419832 -3.317723 -4.414637 -4.530703 -4.294838
45.353820 -2.417496 -3.674304 -3.852079 -3.669996 -3.366937 -3.427583 -3.324904 -4.408729 -4.524985 -4.291397
45.393820 -2.419628 -3.688598 -3.877329 -3.684871 -3.368708 -3.431924 -3.330882 -4.402127 -4.517922 -4.284253
45.433820 -2.423838 -3.707729 -3.909640 -3.705208 -3.371973 -3.440764 -3.337845 -4.398363 -4.512806 -4.279465
45.473820 -2.428088 -3.725705 -3.938091 -3.726787 -3.375684 -3.449081 -3.343336 -4.394381 -4.507093 -4.275083
45.513820 -2.433511 -3.743889 -3.961397 -3.748993 -3.380920 -3.458512 -3.352991 -4.391287 -4.504826 -4.271654
45.553820 -2.440150 -3.762751 -3.985477 -3.775649 -3.387950 -3.472639 -3.360166 -4.387882 -4.505387 -4.273956
45.593820 -2.446892 -3.783204 -4.009989 -3.801619 -3.395000 -3.489665 -3.371043 -4.384403 -4.505237 -4.279458
45.633820 -2.455676 -3.808457 -4.044011 -3.830790 -3.404388 -3.508790 -3.384201 -4.380689 -4.506994 -4.286599
45.673820 -2.464640 -3.832163 -4.071830 -3.860301 -3.413627 -3.525098 -3.390854 -4.380057 -4.509128 -4.288945
45.713820 -2.474671 -3.860324 -4.103775 -3.891365 -3.423655 -3.542423 -3.401888 -4.380184 -4.513128 -4.295810
45.753820 -2.485838 -3.887495 -4.134298 -3.921135 -3.435470 -3.560429 -3.417593 -4.380813 -4.516219 -4.299847
45.793820 -2.497300 -3.916063 -4.165250 -3.954540 -3.448131 -3.579503 -3.428945 -4.379872 -4.521154 -4.304580
45.833820 -2.510945 -3.945116 -4.199858 -3.985261 -3.463369 -3.602160 -3.443075 -4.381214 -4.526400 -4.310584
45.873820 -2.525033 -3.976232 -4.236579 -4.019566 -3.479422 -3.626618 -3.459171 -4.381731 -4.528979 -4.319999
45.913820 -2.540323 -4.008641 -4.272011 -4.054884 -3.496706 -3.652604 -3.473931 -4.384031 -4.533047 -4.331141
45.953820 -2.556930 -4.041990 -4.307473 -4.091433 -3.514879 -3.678899 -3.493879 -4.389714 -4.541571 -4.333990
45.993820 -2.574197 -4.076679 -4.340976 -4.124718 -3.533983 -3.707237 -3.513101 -4.395554 -4.546153 -4.340124
46.033820 -2.593174 -4.112832 -4.374929 -4.160805 -3.554990 -3.735525 -3.536001 -4.403173 -4.560335 -4.355647
46.073820 -2.613017 -4.149707 -4.410318 -4.196188 -3.577841 -3.766141 -3.560045 -4.409560 -4.573860 -4.366756
46.113820 -2.633979 -4.186829 -4.448006 -4.232565 -3.601439 -3.796674 -3.584589 -4.418926 -4.591113 -4.378739
46.153820 -2.656180 -4.225951 -4.486102 -4.270869 -3.627159 -3.828885 -3.608006 -4.427599 -4.604753 -4.391189
46.193820 -2.679578 -4.264990 -4.526036 -4.309480 -3.653958 -3.861457 -3.634889 -4.438704 -4.623962 -4.405627
46.233820 -2.704214 -4.304830 -4.567117 -4.351058 -3.682038 -3.894771 -3.660779 -4.451576 -4.643472 -4.421857
46.273820 -2.730331 -4.345455 -4.609504 -4.392941 -3.711325 -3.929566 -3.689273 -4.467189 -4.661008 -4.441596
46.313820 -2.757332 -4.388084 -4.653852 -4.435927 -3.741836 -3.964731 -3.718732 -4.483110 -4.680279 -4.464386
46.353820 -2.785282 -4.430120 -4.697710 -4.478163 -3.773705 -4.000590 -3.747883 -4.499846 -4.698129 -4.482378
46.393820 -2.815156 -4.474617 -4.743127 -4.522355 -3.807177 -4.037813 -3.780488 -4.519512 -4.719568 -4.505923
46.433820 -2.844569 -4.517541 -4.783342 -4.564810 -3.840646 -4.074110 -3.812003 -4.538367 -4.743485 -4.528111
46.473820 -2.876120 -4.562287 -4.824860 -4.609002 -3.876365 -4.112421 -3.846751 -4.559588 -4.767790 -4.553483
46.513820 -2.908307 -4.607003 -4.867993 -4.653334 -3.912654 -4.150723 -3.882322 -4.582045 -4.796286 -4.578977
46.553820 -2.941090 -4.651465 -4.911949 -4.697567 -3.949356 -4.189118 -3.918439 -4.605891 -4.824289 -4.604963
46.593820 -2.976551 -4.698509 -4.957838 -4.744056 -3.988903 -4.229656 -3.958132 -4.632422 -4.856137 -4.632968
46.633820 -3.010131 -4.742318 -5.000683 -4.787748 -4.026208 -4.268016 -3.995338 -4.658155 -4.885424 -4.658412
46.673820 -3.046527 -4.789157 -5.046448 -4.834001 -4.066541 -4.311608 -4.035741 -4.686548 -4.918518 -4.688309
46.713820 -3.083336 -4.835241 -5.090758 -4.879730 -4.106902 -4.354687 -4.076055 -4.716355 -4.951490 -4.718179
46.753820 -3.120379 -4.881728 -5.136300 -4.924526 -4.147897 -4.397539 -4.116004 -4.745924 -4.985278 -4.750832
46.793820 -3.160877 -4.930640 -5.182968 -4.972122 -4.191906 -4.442862 -4.158955 -4.779951 -5.023122 -4.786069
46.833820 -3.198024 -4.975994 -5.226031 -5.016191 -4.232695 -4.484945 -4.198266 -4.810609 -5.057405 -4.819353
46.873820 -3.238647 -5.024185 -5.272399 -5.063367 -4.276947 -4.525108 -4.241320 -4.844988 -5.095738 -4.855087
46.913820 -3.279354 -5.072432 -5.318488 -5.111068 -4.320909 -4.564656 -4.283989 -4.880141 -5.134019 -4.892230
46.953820 -3.319762 -5.119658 -5.365786 -5.158009 -4.364385 -4.603939 -4.326237 -4.915452 -5.171380 -4.928116
46.993820 -3.364318 -5.171641 -5.418814 -5.209420 -4.411606 -4.651502 -4.373113 -4.955514 -5.212798 -4.968817
47.033820 -3.404230 -5.218493 -5.465386 -5.254817 -4.454325 -4.694785 -4.415298 -4.990866 -5.250335 -5.005178
47.073820 -3.448185 -5.269706 -5.515671 -5.304273 -4.500611 -4.741763 -4.462749 -5.030957 -5.292068 -5.045424
47.113820 -3.492016 -5.320430 -5.567861 -5.351838 -4.546742 -4.788181 -4.511131 -5.071061 -5.333984 -5.085917
47.153820 -3.535159 -5.370720 -5.618431 -5.398412 -4.591993 -4.833735 -4.558530 -5.110765 -5.374965 -5.125453
47.193820 -3.583066 -5.425655 -5.676202 -5.449549 -4.641941 -4.883916 -4.608560 -5.155384 -5.420926 -5.170000
47.233820 -3.625146 -5.474488 -5.727225 -5.494951 -4.685869 -4.928083 -4.649047 -5.194492 -5.460539 -5.208536
47.273820 -3.671745 -5.528628 -5.784829 -5.545024 -4.734198 -4.976770 -4.694613 -5.238245 -5.504728 -5.251886
47.313820 -3.718025 -5.581161 -5.844093 -5.595347 -4.782027 -5.024938 -4.742552 -5.282049 -5.548507 -5.294678
47.353820 -3.763250 -5.633823 -5.901406 -5.646241 -4.828849 -5.072259 -4.790035 -5.324673 -5.591256 -5.338165
47.393820 -3.813738 -5.689719 -5.966822 -5.702384 -4.880797 -5.124769 -4.840208 -5.372918 -5.639309 -5.387980
47.433820 -3.857500 -5.740295 -6.027366 -5.752696 -4.926236 -5.171035 -4.882908 -5.414087 -5.680079 -5.427673
47.473820 -3.906171 -5.794985 -6.094779 -5.804029 -4.976531 -5.222080 -4.931058 -5.460320 -5.726246 -5.472319
47.513820 -3.954406 -5.850473 -6.162798 -5.862889 -5.026373 -5.273317 -4.977909 -5.506075 -5.770900 -5.518750
47.553820 -4.001333 -5.904795 -6.229963 -5.917397 -5.074934 -5.322703 -5.024211 -5.550509 -5.814808 -5.564506
47.593820 -4.053951 -5.965655 -6.304770 -5.978358 -5.128975 -5.377930 -5.075362 -5.600857 -5.864036 -5.616106
47.633820 -4.099221 -6.019633 -6.373045 -6.031960 -5.176085 -5.425824 -5.119790 -5.643363 -5.904056 -5.660538
47.673820 -4.149766 -6.079568 -6.448645 -6.092448 -5.228095 -5.478917 -5.170234 -5.691574 -5.948467 -5.709437
47.713820 -4.199868 -6.140597 -6.524595 -6.151400 -5.280176 -5.532622 -5.223261 -5.738684 -5.992157 -5.755095
47.753820 -4.248553 -6.201486 -6.608358 -6.212792 -5.330351 -5.585332 -5.276376 -5.784903 -6.034157 -5.800333
47.793820 -4.303392 -6.270285 -6.695656 -6.290613 -5.387171 -5.644743 -5.332480 -5.836658 -6.083272 -5.850431
47.833820 -4.350463 -6.332692 -6.769627 -6.349855 -5.435820 -5.697228 -5.380632 -5.881076 -6.125239 -5.893685
47.873820 -4.403264 -6.402846 -6.859609 -6.422828 -5.490595 -5.756144 -5.434360 -5.930730 -6.171360 -5.942729
47.913820 -4.455699 -6.473551 -6.948417 -6.498388 -5.545051 -5.815487 -5.487598 -5.979989 -6.216311 -5.992826
47.953820 -4.506693 -6.545544 -7.037877 -6.575602 -5.598435 -5.876693 -5.540361 -6.027350 -6.262638 -6.036248
47.993820 -4.564481 -6.625283 -7.136931 -6.659647 -5.658953 -5.946337 -5.599297 -6.081194 -6.316629 -6.086897
48.033820 -4.613964 -6.699808 -7.230424 -6.737729 -5.711511 -6.009115 -5.651955 -6.126346 -6.362701 -6.131051
48.073820 -4.669820 -6.781179 -7.333435 -6.814151 -5.770854 -6.076096 -5.709353 -6.177558 -6.414316 -6.180204
48.113820 -4.725439 -6.865455 -7.439159 -6.891913 -5.830275 -6.144903 -5.768937 -6.228237 -6.465409 -6.230667
48.153820 -4.779608 -6.948837 -7.547275 -6.969510 -5.888729 -6.211830 -5.825817 -6.277132 -6.514946 -6.278322
