#Quasar bolometric luminosity function in different bins of deviation from the SMBH mass--galaxy mass (BHSM) relation
#from TRINITY PaperIII (Fig. 7, Zhang+2024, MNRAS, 529, 2777)
#z: 6.00
#log10(Lbol [erg/s])(0) log10(QLF_total [Mpc^-3 dex^-1])(1) log10(QLF(offset < -0.3 dex) [Mpc^-3 dex^-1])(2) log10(QLF(offset < -0.3 dex)_16th [Mpc^-3 dex^-1])(3) log10(QLF(offset < -0.3 dex)_84th [Mpc^-3 dex^-1])(4)
#log10(QLF(-0.3 dex < offset < 0.3 dex) [Mpc^-3 dex^-1])(5) log10(QLF(-0.3 dex < offset < 0.3 dex)_16th [Mpc^-3 dex^-1])(6) log10(QLF(-0.3 dex < offset < 0.3 dex)_84th [Mpc^-3 dex^-1])(7)
#log10(QLF(offset > 0.3 dex) [Mpc^-3 dex^-1])(8) log10(QLF(offset > 0.3 dex)_16th [Mpc^-3 dex^-1])(9) log10(QLF(offset > 0.3 dex)_84th [Mpc^-3 dex^-1])(10)
41.193820 -5.698055 -6.757742 -7.493375 -6.739442 -6.668344 -7.449449 -6.650277 -7.839383 -8.656467 -7.877273
41.233820 -5.684191 -6.744084 -7.472307 -6.724998 -6.654505 -7.429585 -6.634936 -7.824969 -8.635172 -7.859375
41.273820 -5.670756 -6.731019 -7.451952 -6.711226 -6.641066 -7.410282 -6.616315 -7.810848 -8.614912 -7.841343
41.313820 -5.657260 -6.717743 -7.430966 -6.698122 -6.627588 -7.390637 -6.596610 -7.796822 -8.594086 -7.822852
41.353820 -5.643720 -6.704669 -7.410214 -6.685874 -6.614044 -7.371186 -6.577155 -7.782414 -8.571479 -7.804697
41.393820 -5.630589 -6.691705 -7.389617 -6.673745 -6.600939 -7.351794 -6.557604 -7.768811 -8.552920 -7.786562
41.433820 -5.616882 -6.678300 -7.368502 -6.661989 -6.587233 -7.331894 -6.536884 -7.754520 -8.535739 -7.768060
41.473820 -5.603593 -6.665163 -7.347595 -6.637935 -6.573992 -7.311926 -6.515389 -7.740661 -8.518352 -7.749619
41.513820 -5.590119 -6.651915 -7.326144 -6.623747 -6.560573 -7.291655 -6.491152 -7.726431 -8.501142 -7.730897
41.553820 -5.576487 -6.638500 -7.304582 -6.609176 -6.547010 -7.270818 -6.465612 -7.711984 -8.474869 -7.711726
41.593820 -5.563270 -6.625499 -7.282716 -6.595080 -6.533785 -7.249956 -6.451527 -7.698407 -8.443095 -7.692654
41.633820 -5.549111 -6.611661 -7.260165 -6.580050 -6.519623 -7.227705 -6.435960 -7.683655 -8.407533 -7.673413
41.673820 -5.535399 -6.598168 -7.237397 -6.565299 -6.505922 -7.205090 -6.421351 -7.669467 -8.372976 -7.656616
41.713820 -5.521295 -6.584416 -7.214153 -6.551014 -6.491877 -7.181419 -6.406516 -7.654359 -8.339772 -7.639765
41.753820 -5.506850 -6.570304 -7.189725 -6.536435 -6.477457 -7.154558 -6.392051 -7.639141 -8.310847 -7.622594
41.793820 -5.492870 -6.556892 -7.165115 -6.522506 -6.463482 -7.125533 -6.378944 -7.624070 -8.287537 -7.605356
41.833820 -5.477197 -6.541704 -7.138235 -6.506703 -6.447834 -7.091793 -6.363404 -7.607347 -8.257773 -7.571628
41.873820 -5.462071 -6.527311 -7.110415 -6.491560 -6.432684 -7.032348 -6.348391 -7.591003 -8.227615 -7.525064
41.913820 -5.445786 -6.511919 -7.080147 -6.475067 -6.416360 -6.995745 -6.331725 -7.573288 -8.179954 -7.475726
41.953820 -5.428487 -6.495815 -7.049038 -6.457670 -6.399026 -6.954837 -6.311818 -7.553997 -8.116544 -7.420277
41.993820 -5.411851 -6.480703 -7.014634 -6.440836 -6.382345 -6.900396 -6.257051 -7.534846 -8.069726 -7.403664
42.033820 -5.389894 -6.460676 -6.974323 -6.404565 -6.360294 -6.822612 -6.201419 -7.509937 -8.005902 -7.305089
42.073820 -5.368995 -6.442464 -6.935272 -6.333281 -6.339214 -6.731203 -6.133401 -7.485279 -7.966480 -7.219870
42.113820 -5.342482 -6.419510 -6.871989 -6.277777 -6.312446 -6.680415 -6.030488 -7.453962 -7.914585 -7.060962
42.153820 -5.311382 -6.393188 -6.798684 -6.175226 -6.281048 -6.630327 -5.862851 -7.416335 -7.846958 -6.937059
42.193820 -5.282360 -6.370607 -6.721784 -6.058394 -6.251573 -6.569306 -5.718620 -7.379076 -7.688786 -6.726940
42.233820 -5.224068 -6.321556 -6.654489 -5.995590 -6.192459 -6.464749 -5.516778 -7.310406 -7.540969 -6.496500
42.273820 -5.172682 -6.282885 -6.564132 -5.830975 -6.139957 -6.337751 -5.458160 -7.245551 -7.447270 -6.352696
42.313820 -5.085825 -6.213748 -6.408273 -5.741973 -6.051656 -6.191705 -5.362536 -7.140949 -7.236472 -6.236484
42.353820 -4.981621 -6.134015 -6.297280 -5.657630 -5.945407 -6.003397 -5.268884 -7.015163 -7.056145 -6.232981
42.393820 -4.897645 -6.084926 -6.219142 -5.625338 -5.857773 -5.962237 -5.311129 -6.908264 -6.931857 -6.196847
42.433820 -4.872425 -6.102437 -6.221296 -5.712529 -5.828829 -5.931298 -5.333010 -6.857274 -6.956894 -6.296075
42.473820 -4.848590 -6.110794 -6.258128 -5.780389 -5.805709 -5.961360 -5.440272 -6.803236 -6.970996 -6.348140
42.513820 -4.839064 -6.076231 -6.280381 -5.794459 -5.811958 -5.970277 -5.411693 -6.754253 -6.962638 -6.363081
42.553820 -4.842926 -6.062914 -6.295560 -5.794589 -5.831803 -5.962607 -5.459761 -6.718385 -6.957382 -6.403885
42.593820 -4.846823 -6.036299 -6.285740 -5.789121 -5.839624 -5.958198 -5.436037 -6.733264 -6.985798 -6.418440
42.633820 -4.846255 -6.042230 -6.314997 -5.776172 -5.824233 -5.970926 -5.475076 -6.776954 -6.974386 -6.379573
42.673820 -4.845688 -6.021851 -6.296915 -5.819844 -5.822000 -5.971495 -5.461173 -6.800649 -6.993106 -6.403733
42.713820 -4.845761 -6.045488 -6.285816 -5.802512 -5.810842 -5.964787 -5.485551 -6.822536 -6.959374 -6.430919
42.753820 -4.846474 -6.041254 -6.281680 -5.799135 -5.813995 -5.965330 -5.468272 -6.818046 -6.971054 -6.452356
42.793820 -4.847189 -6.026828 -6.277022 -5.785664 -5.824804 -5.962745 -5.497803 -6.793944 -6.988077 -6.481856
42.833820 -4.845701 -6.012678 -6.289006 -5.764200 -5.834588 -5.985685 -5.507175 -6.763980 -6.994185 -6.456717
42.873820 -4.844219 -6.009729 -6.285692 -5.764674 -5.825838 -5.962290 -5.514370 -6.789568 -7.013699 -6.477755
42.913820 -4.844363 -6.025266 -6.269039 -5.763129 -5.818055 -5.978008 -5.531381 -6.804832 -7.034238 -6.485792
42.953820 -4.846135 -6.016036 -6.254075 -5.768995 -5.816820 -5.973784 -5.537685 -6.829646 -7.033063 -6.548481
42.993820 -4.847915 -5.996652 -6.249502 -5.743806 -5.831514 -5.970164 -5.553319 -6.802574 -7.014252 -6.507906
43.033820 -4.849325 -5.986091 -6.260377 -5.753813 -5.830237 -5.976882 -5.561435 -6.827097 -7.025028 -6.558161
43.073820 -4.850740 -5.969478 -6.253986 -5.732161 -5.836513 -6.001683 -5.581652 -6.829743 -7.060695 -6.541138
43.113820 -4.850466 -5.958300 -6.237815 -5.748916 -5.832300 -5.974278 -5.567060 -6.858827 -7.097149 -6.584993
43.153820 -4.848508 -5.963168 -6.261940 -5.731939 -5.822902 -5.999284 -5.582979 -6.880807 -7.099549 -6.612201
43.193820 -4.846558 -5.962161 -6.298156 -5.719623 -5.815187 -5.994141 -5.570464 -6.904898 -7.076171 -6.617855
43.233820 -4.840638 -5.946822 -6.263927 -5.697097 -5.809349 -6.005394 -5.583986 -6.912126 -7.105692 -6.604551
43.273820 -4.834797 -5.918478 -6.251335 -5.666997 -5.811848 -5.987302 -5.572168 -6.898607 -7.095245 -6.601686
43.313820 -4.827481 -5.907878 -6.248471 -5.686973 -5.803037 -5.997905 -5.575453 -6.903820 -7.105592 -6.594609
43.353820 -4.818763 -5.882207 -6.233863 -5.647983 -5.802641 -5.986135 -5.539358 -6.881152 -7.109977 -6.598645
43.393820 -4.810217 -5.876028 -6.269023 -5.641883 -5.791906 -5.993626 -5.575112 -6.879407 -7.118782 -6.583806
43.433820 -4.799060 -5.851656 -6.227591 -5.593559 -5.780580 -5.998189 -5.571844 -6.891318 -7.113928 -6.623070
43.473820 -4.788183 -5.832771 -6.207958 -5.584437 -5.769938 -5.988688 -5.564045 -6.893591 -7.106634 -6.593989
43.513820 -4.775984 -5.806977 -6.166515 -5.560452 -5.764642 -5.988906 -5.538602 -6.870533 -7.140589 -6.599283
43.553820 -4.762579 -5.780148 -6.144380 -5.538964 -5.756437 -6.005284 -5.527752 -6.855992 -7.128594 -6.574423
43.593820 -4.749576 -5.762684 -6.122250 -5.504844 -5.743410 -5.980469 -5.500035 -6.851742 -7.144637 -6.628080
43.633820 -4.736502 -5.743658 -6.093639 -5.488235 -5.725676 -5.975057 -5.480546 -6.876053 -7.138833 -6.605474
43.673820 -4.723811 -5.724726 -6.073616 -5.469236 -5.714317 -5.963866 -5.484395 -6.869529 -7.142288 -6.614661
43.713820 -4.709193 -5.695605 -6.049337 -5.439909 -5.701089 -5.941622 -5.489294 -6.880654 -7.135700 -6.592252
43.753820 -4.692849 -5.670179 -6.051870 -5.424607 -5.688516 -5.956553 -5.493382 -6.864089 -7.106618 -6.617964
43.793820 -4.677098 -5.644152 -6.030719 -5.391890 -5.677094 -5.917063 -5.448792 -6.848528 -7.107487 -6.636598
43.833820 -4.657428 -5.620862 -6.009282 -5.366885 -5.658558 -5.914837 -5.444217 -6.831450 -7.106984 -6.622262
43.873820 -4.638610 -5.595739 -5.978300 -5.337915 -5.638972 -5.891811 -5.423823 -6.834245 -7.104037 -6.622003
43.913820 -4.618656 -5.570479 -5.957218 -5.317248 -5.617992 -5.888352 -5.427673 -6.836064 -7.103498 -6.615145
43.953820 -4.597749 -5.538676 -5.930476 -5.288648 -5.600771 -5.865822 -5.398702 -6.823520 -7.098006 -6.608845
43.993820 -4.577803 -5.513392 -5.914160 -5.271823 -5.581564 -5.847379 -5.388401 -6.815353 -7.071204 -6.593706
44.033820 -4.554541 -5.488482 -5.893555 -5.248705 -5.559217 -5.823019 -5.375481 -6.791123 -7.074596 -6.601953
44.073820 -4.532463 -5.467683 -5.865806 -5.232146 -5.534872 -5.800085 -5.340484 -6.780609 -7.076285 -6.572773
44.113820 -4.509078 -5.443384 -5.846402 -5.204749 -5.510842 -5.790900 -5.323410 -6.764840 -7.106771 -6.567031
44.153820 -4.484643 -5.414682 -5.813132 -5.176035 -5.486443 -5.754644 -5.295238 -6.754768 -7.084793 -6.549497
44.193820 -4.461511 -5.391206 -5.795917 -5.148392 -5.462715 -5.733013 -5.274610 -6.737303 -7.073065 -6.537393
44.233820 -4.434926 -5.364285 -5.760034 -5.121204 -5.435553 -5.699435 -5.246145 -6.716294 -7.050271 -6.517026
44.273820 -4.409875 -5.341025 -5.734804 -5.100281 -5.409392 -5.680531 -5.217696 -6.693303 -7.064125 -6.482686
44.313820 -4.384186 -5.314305 -5.705075 -5.079328 -5.381970 -5.664478 -5.184204 -6.685030 -7.030734 -6.459390
44.353820 -4.358046 -5.288706 -5.685865 -5.061327 -5.354304 -5.633006 -5.150770 -6.669265 -7.001733 -6.423570
44.393820 -4.333389 -5.264583 -5.666859 -5.044984 -5.328107 -5.627090 -5.137097 -6.655432 -6.992482 -6.413113
44.433820 -4.305582 -5.238096 -5.643859 -5.023452 -5.299322 -5.598361 -5.100026 -6.630776 -6.958525 -6.387365
44.473820 -4.279449 -5.216391 -5.623952 -5.007221 -5.271330 -5.578781 -5.082379 -6.603227 -6.955467 -6.364816
44.513820 -4.252886 -5.194165 -5.595365 -4.990953 -5.242750 -5.545624 -5.047433 -6.577201 -6.910778 -6.338940
44.553820 -4.226056 -5.174695 -5.576844 -4.970410 -5.212497 -5.526694 -5.026291 -6.551856 -6.903823 -6.329668
44.593820 -4.200788 -5.154751 -5.554823 -4.940113 -5.184626 -5.495807 -4.999315 -6.529230 -6.873030 -6.295467
44.633820 -4.174120 -5.134466 -5.539388 -4.911932 -5.156119 -5.465441 -4.976115 -6.494921 -6.842272 -6.282160
44.673820 -4.148995 -5.114738 -5.522220 -4.883037 -5.128862 -5.434337 -4.956892 -6.468766 -6.818484 -6.248821
44.713820 -4.124302 -5.095396 -5.510393 -4.878912 -5.101961 -5.403827 -4.939015 -6.444207 -6.795845 -6.228134
44.753820 -4.100047 -5.078499 -5.492884 -4.889989 -5.074595 -5.380078 -4.924813 -6.421361 -6.772146 -6.205789
44.793820 -4.077075 -5.063059 -5.462842 -4.901362 -5.048696 -5.356393 -4.898106 -6.398180 -6.737935 -6.176787
44.833820 -4.053874 -5.053826 -5.431664 -4.898062 -5.021357 -5.329700 -4.875165 -6.364716 -6.726575 -6.151614
44.873820 -4.031849 -5.043778 -5.404860 -4.887069 -4.996059 -5.302389 -4.848180 -6.333095 -6.685046 -6.111565
44.913820 -4.010751 -5.033347 -5.378096 -4.890556 -4.972466 -5.279696 -4.824211 -6.301068 -6.659063 -6.091138
44.953820 -3.990501 -5.021730 -5.353075 -4.897126 -4.950078 -5.246591 -4.804460 -6.273811 -6.633927 -6.068399
44.993820 -3.971153 -5.014196 -5.331202 -4.886948 -4.928238 -5.219311 -4.787681 -6.242377 -6.613382 -6.044776
45.033820 -3.953096 -5.011052 -5.313198 -4.866365 -4.907607 -5.193032 -4.771487 -6.206319 -6.581989 -6.019298
45.073820 -3.935759 -5.008068 -5.296417 -4.862948 -4.887625 -5.178048 -4.756711 -6.174906 -6.568815 -5.985179
45.113820 -3.919756 -5.008973 -5.285288 -4.867408 -4.868339 -5.143145 -4.750734 -6.145688 -6.535297 -5.951496
45.153820 -3.904967 -5.007759 -5.282344 -4.869622 -4.851047 -5.105931 -4.753179 -6.120743 -6.493400 -5.925102
45.193820 -3.890665 -5.009973 -5.275856 -4.873291 -4.834515 -5.083578 -4.734637 -6.089769 -6.467568 -5.894511
45.233820 -3.878940 -5.012830 -5.281752 -4.882394 -4.821025 -5.059061 -4.715962 -6.063455 -6.434262 -5.873098
45.273820 -3.867523 -5.021012 -5.285358 -4.897028 -4.807216 -5.037987 -4.717541 -6.034704 -6.416623 -5.852572
45.313820 -3.857615 -5.030428 -5.296207 -4.908539 -4.794997 -5.016610 -4.697992 -6.009508 -6.395990 -5.834989
45.353820 -3.849121 -5.040878 -5.316232 -4.916521 -4.785056 -5.003558 -4.695633 -5.982647 -6.366678 -5.815051
45.393820 -3.840791 -5.050370 -5.329366 -4.934874 -4.776028 -5.007945 -4.688312 -5.954731 -6.339645 -5.792415
45.433820 -3.835680 -5.064904 -5.349661 -4.953516 -4.769774 -5.010578 -4.685694 -5.932228 -6.307095 -5.773303
45.473820 -3.830628 -5.081944 -5.367169 -4.963253 -4.763462 -4.993259 -4.675680 -5.909486 -6.286943 -5.751727
45.513820 -3.827470 -5.100545 -5.378526 -4.969870 -4.758908 -4.976603 -4.667721 -5.891581 -6.269070 -5.731500
45.553820 -3.826163 -5.120482 -5.395968 -4.979474 -4.757541 -4.961356 -4.655884 -5.870554 -6.246617 -5.701669
45.593820 -3.824860 -5.138645 -5.399279 -5.003229 -4.756508 -4.944308 -4.662693 -5.851103 -6.225771 -5.668241
45.633820 -3.827226 -5.163886 -5.418349 -5.040506 -4.759975 -4.941737 -4.658441 -5.830242 -6.202300 -5.642877
45.673820 -3.829605 -5.190310 -5.443090 -5.070457 -4.763380 -4.950899 -4.660013 -5.810991 -6.182935 -5.639807
45.713820 -3.833905 -5.221155 -5.459995 -5.097165 -4.768206 -4.970190 -4.675314 -5.796172 -6.156846 -5.642926
45.753820 -3.840182 -5.255168 -5.492935 -5.123138 -4.774543 -4.985014 -4.684248 -5.786338 -6.139467 -5.653325
45.793820 -3.846551 -5.289047 -5.528136 -5.153130 -4.781718 -4.981728 -4.690288 -5.775259 -6.115934 -5.647732
45.833820 -3.856989 -5.324919 -5.563041 -5.185068 -4.794330 -4.994578 -4.697133 -5.765517 -6.102195 -5.649577
45.873820 -3.867684 -5.360915 -5.595758 -5.222551 -4.807525 -5.015623 -4.706266 -5.756491 -6.089731 -5.643315
45.913820 -3.880346 -5.399082 -5.615343 -5.250193 -4.823781 -5.036654 -4.716562 -5.747137 -6.081664 -5.632211
45.953820 -3.895144 -5.438049 -5.661105 -5.286067 -4.841736 -5.057142 -4.727240 -5.743406 -6.075390 -5.623444
45.993820 -3.910464 -5.476021 -5.706049 -5.318571 -4.860773 -5.082544 -4.735343 -5.740189 -6.066490 -5.626565
46.033820 -3.928804 -5.513974 -5.742338 -5.354216 -4.882680 -5.087685 -4.754180 -5.742429 -6.051491 -5.612943
46.073820 -3.947952 -5.552672 -5.780148 -5.393136 -4.906039 -5.112841 -4.777853 -5.744600 -6.042467 -5.609814
46.113820 -3.968788 -5.591121 -5.815499 -5.434667 -4.931547 -5.136770 -4.789162 -5.748653 -6.041191 -5.607072
46.153820 -3.991521 -5.632549 -5.852856 -5.481982 -4.958836 -5.159719 -4.813303 -5.755572 -6.042442 -5.611174
46.193820 -4.015510 -5.673550 -5.886829 -5.536341 -4.987065 -5.191023 -4.835166 -5.765672 -6.050167 -5.622444
46.233820 -4.040894 -5.717999 -5.930465 -5.606443 -5.017005 -5.227972 -4.863346 -5.776716 -6.069531 -5.640123
46.273820 -4.067855 -5.763248 -5.968706 -5.648630 -5.049020 -5.267098 -4.901324 -5.789087 -6.064903 -5.650639
46.313820 -4.095967 -5.809989 -6.010254 -5.688247 -5.082563 -5.306899 -4.938184 -5.802489 -6.084072 -5.665486
46.353820 -4.125349 -5.857019 -6.054796 -5.734697 -5.116992 -5.340968 -4.966247 -5.818818 -6.102732 -5.694017
46.393820 -4.156863 -5.903905 -6.102609 -5.784956 -5.153016 -5.382239 -5.003726 -5.839229 -6.119872 -5.717394
46.433820 -4.188238 -5.950967 -6.150041 -5.838584 -5.189600 -5.422286 -5.039417 -5.858592 -6.126727 -5.725384
46.473820 -4.222056 -5.997292 -6.198914 -5.891850 -5.228634 -5.465839 -5.077549 -5.881282 -6.143335 -5.740926
46.513820 -4.256501 -6.044062 -6.246692 -5.948821 -5.268725 -5.512206 -5.117578 -5.904306 -6.159115 -5.769246
46.553820 -4.291494 -6.088485 -6.292223 -6.004958 -5.309478 -5.556102 -5.153680 -5.928464 -6.187872 -5.797272
46.593820 -4.329556 -6.135681 -6.341637 -6.064662 -5.353007 -5.601975 -5.198616 -5.956602 -6.216612 -5.825859
46.633820 -4.365394 -6.177778 -6.389934 -6.113671 -5.393583 -5.635649 -5.241014 -5.984292 -6.233339 -5.853154
46.673820 -4.404458 -6.222345 -6.439122 -6.162345 -5.436853 -5.672081 -5.281222 -6.016327 -6.258106 -5.885421
46.713820 -4.443814 -6.265191 -6.478703 -6.215085 -5.479821 -5.709399 -5.328621 -6.049913 -6.292890 -5.919863
46.753820 -4.483183 -6.306508 -6.524304 -6.269342 -5.522042 -5.752590 -5.371190 -6.084889 -6.329739 -5.954284
46.793820 -4.526481 -6.351677 -6.580842 -6.324682 -5.567887 -5.799664 -5.419451 -6.124313 -6.373168 -5.995311
46.833820 -4.565602 -6.390537 -6.631002 -6.363535 -5.608265 -5.834449 -5.463958 -6.161654 -6.410023 -6.031867
46.873820 -4.608599 -6.434027 -6.692179 -6.407588 -5.652501 -5.872474 -5.513834 -6.202838 -6.451273 -6.075673
46.913820 -4.651470 -6.476562 -6.759440 -6.467152 -5.695872 -5.911250 -5.561518 -6.245032 -6.490111 -6.119152
46.953820 -4.693687 -6.519635 -6.814225 -6.530267 -5.738989 -5.960495 -5.611194 -6.285897 -6.530468 -6.164121
46.993820 -4.740453 -6.567520 -6.871839 -6.593424 -5.786181 -6.005083 -5.664892 -6.331960 -6.570428 -6.213873
47.033820 -4.781600 -6.611354 -6.921167 -6.646409 -5.828478 -6.061680 -5.714730 -6.371247 -6.607122 -6.251168
47.073820 -4.827056 -6.660457 -6.971582 -6.704773 -5.875150 -6.116874 -5.769510 -6.414679 -6.648622 -6.293866
47.113820 -4.872159 -6.711184 -7.029246 -6.759325 -5.921815 -6.168414 -5.825736 -6.457122 -6.691489 -6.339630
47.153820 -4.916211 -6.762306 -7.088745 -6.818317 -5.967709 -6.220230 -5.875853 -6.498038 -6.731040 -6.385217
47.193820 -4.965241 -6.819718 -7.154369 -6.881633 -6.018299 -6.275205 -5.931796 -6.544243 -6.776436 -6.435468
47.233820 -5.007753 -6.872637 -7.214382 -6.933835 -6.062900 -6.325775 -5.983614 -6.583099 -6.814636 -6.479657
47.273820 -5.054882 -6.931272 -7.276642 -6.989878 -6.111894 -6.377811 -6.038679 -6.626843 -6.861925 -6.527437
47.313820 -5.101655 -6.991593 -7.339258 -7.046401 -6.160808 -6.426463 -6.094526 -6.669777 -6.910691 -6.575443
47.353820 -5.147298 -7.051672 -7.400945 -7.101375 -6.208616 -6.473591 -6.147050 -6.711566 -6.957295 -6.621738
47.393820 -5.198308 -7.118629 -7.468887 -7.159674 -6.261920 -6.526573 -6.203434 -6.758536 -7.010342 -6.677152
47.433820 -5.242454 -7.180100 -7.531199 -7.212960 -6.308553 -6.572648 -6.257049 -6.798405 -7.057376 -6.734620
47.473820 -5.291600 -7.247635 -7.608526 -7.277011 -6.360332 -6.627758 -6.312894 -6.843134 -7.109164 -6.786905
47.513820 -5.340455 -7.316321 -7.683293 -7.337854 -6.412054 -6.683712 -6.370204 -6.887317 -7.157947 -6.834182
47.553820 -5.388170 -7.384365 -7.747738 -7.407401 -6.462661 -6.738334 -6.426662 -6.930430 -7.197795 -6.880364
47.593820 -5.441782 -7.459792 -7.830315 -7.488144 -6.519531 -6.802984 -6.489287 -6.979061 -7.249407 -6.935362
47.633820 -5.488262 -7.528240 -7.910286 -7.564274 -6.569436 -6.861311 -6.544513 -7.020506 -7.288754 -6.979085
47.673820 -5.540320 -7.603326 -7.997205 -7.647291 -6.625203 -6.925437 -6.605679 -7.067308 -7.334110 -7.033331
47.713820 -5.592214 -7.679027 -8.085287 -7.731007 -6.681047 -6.989571 -6.667053 -7.113804 -7.386157 -7.091867
47.753820 -5.642989 -7.754382 -8.174745 -7.801166 -6.735838 -7.053601 -6.727782 -7.159240 -7.439822 -7.137041
47.793820 -5.700496 -7.836973 -8.259359 -7.872318 -6.797864 -7.123908 -6.795820 -7.211027 -7.497637 -7.188766
47.833820 -5.750225 -7.911776 -8.335330 -7.938237 -6.852200 -7.187681 -6.852803 -7.255124 -7.544935 -7.232684
47.873820 -5.806393 -7.994492 -8.435062 -8.019636 -6.913349 -7.256348 -6.913790 -7.305414 -7.597899 -7.286656
47.913820 -5.862489 -8.077013 -8.523533 -8.101791 -6.974572 -7.326517 -6.975632 -7.355681 -7.650686 -7.343493
47.953820 -5.917342 -8.159622 -8.610010 -8.184001 -7.034991 -7.398768 -7.036058 -7.404440 -7.703038 -7.399624
47.993820 -5.980139 -8.249651 -8.705300 -8.273993 -7.103495 -7.477965 -7.105232 -7.461227 -7.762141 -7.463911
48.033820 -6.033825 -8.331441 -8.791619 -8.347650 -7.163369 -7.546415 -7.168092 -7.508649 -7.813156 -7.519058
48.073820 -6.095097 -8.421849 -8.888219 -8.428606 -7.231019 -7.622362 -7.239700 -7.563679 -7.870778 -7.576911
48.113820 -6.156343 -8.513218 -8.989592 -8.510796 -7.299013 -7.699360 -7.300834 -7.618565 -7.928890 -7.630190
48.153820 -6.216040 -8.603140 -9.101765 -8.591473 -7.365935 -7.771791 -7.362455 -7.671735 -7.984716 -7.683534
