#Quasar bolometric luminosity function in different bins of deviation from the SMBH mass--galaxy mass (BHSM) relation
#from TRINITY PaperIII (Fig. 7, Zhang+2024, MNRAS, 529, 2777)
#z: 3.00
#log10(Lbol [erg/s])(0) log10(QLF_total [Mpc^-3 dex^-1])(1) log10(QLF(offset < -0.3 dex) [Mpc^-3 dex^-1])(2) log10(QLF(offset < -0.3 dex)_16th [Mpc^-3 dex^-1])(3) log10(QLF(offset < -0.3 dex)_84th [Mpc^-3 dex^-1])(4)
#log10(QLF(-0.3 dex < offset < 0.3 dex) [Mpc^-3 dex^-1])(5) log10(QLF(-0.3 dex < offset < 0.3 dex)_16th [Mpc^-3 dex^-1])(6) log10(QLF(-0.3 dex < offset < 0.3 dex)_84th [Mpc^-3 dex^-1])(7)
#log10(QLF(offset > 0.3 dex) [Mpc^-3 dex^-1])(8) log10(QLF(offset > 0.3 dex)_16th [Mpc^-3 dex^-1])(9) log10(QLF(offset > 0.3 dex)_84th [Mpc^-3 dex^-1])(10)
41.193820 -3.793137 -4.866903 -5.223145 -4.804094 -4.764754 -5.154802 -4.633936 -5.901158 -6.337543 -5.819008
41.233820 -3.782089 -4.855901 -5.208470 -4.792736 -4.753712 -5.139599 -4.624776 -5.889997 -6.322532 -5.809435
41.273820 -3.771315 -4.845166 -5.193700 -4.781735 -4.742950 -5.124688 -4.615948 -5.879090 -6.307789 -5.800541
41.313820 -3.760465 -4.834355 -5.178775 -4.771027 -4.732107 -5.109644 -4.606974 -5.868134 -6.292929 -5.791517
41.353820 -3.749550 -4.823488 -5.163847 -4.760269 -4.721205 -5.094419 -4.598012 -5.857066 -6.278050 -5.782488
41.393820 -3.738903 -4.812878 -5.149013 -4.749749 -4.710568 -5.079286 -4.589244 -5.846302 -6.263389 -5.773453
41.433820 -3.727833 -4.801839 -5.133920 -4.738724 -4.699510 -5.063545 -4.580117 -5.835113 -6.248742 -5.763767
41.473820 -3.717039 -4.791066 -5.118898 -4.727943 -4.688729 -5.047798 -4.571169 -5.824211 -6.234419 -5.754528
41.513820 -3.706108 -4.780164 -5.103873 -4.715577 -4.677810 -5.031691 -4.562006 -5.813163 -6.219814 -5.745349
41.553820 -3.695058 -4.769165 -5.088795 -4.702435 -4.666770 -5.010863 -4.552709 -5.801974 -6.204911 -5.736079
41.593820 -3.684282 -4.758447 -5.074004 -4.691082 -4.656009 -4.989345 -4.543676 -5.791014 -6.190096 -5.726493
41.633820 -3.672864 -4.747117 -5.058593 -4.679020 -4.644603 -4.968780 -4.534065 -5.779378 -6.174509 -5.713900
41.673820 -3.661740 -4.736074 -5.043397 -4.667226 -4.633501 -4.955475 -4.524028 -5.767997 -6.158837 -5.701315
41.713820 -3.650358 -4.724836 -5.027821 -4.656077 -4.622132 -4.940992 -4.508140 -5.756292 -6.142043 -5.688093
41.753820 -3.638746 -4.713405 -5.011397 -4.646354 -4.610536 -4.921599 -4.491165 -5.744282 -6.124054 -5.673671
41.793820 -3.627436 -4.702323 -4.991011 -4.634659 -4.599246 -4.899619 -4.474642 -5.732477 -6.105542 -5.659074
41.833820 -3.615066 -4.690231 -4.970925 -4.621028 -4.586896 -4.878406 -4.457257 -5.719520 -6.081481 -5.642371
41.873820 -3.603039 -4.678526 -4.954726 -4.607328 -4.574905 -4.857390 -4.441454 -5.706744 -6.061597 -5.625073
41.913820 -3.590364 -4.666355 -4.937147 -4.592676 -4.562245 -4.831644 -4.427625 -5.693129 -6.039510 -5.606144
41.953820 -3.577106 -4.653644 -4.918561 -4.579276 -4.549020 -4.802848 -4.412988 -5.678768 -6.015120 -5.584468
41.993820 -3.564241 -4.641578 -4.899979 -4.564187 -4.536182 -4.776574 -4.401763 -5.664403 -5.988937 -5.561510
42.033820 -3.548593 -4.626843 -4.877006 -4.539984 -4.520581 -4.755226 -4.381839 -5.646970 -5.928277 -5.534128
42.073820 -3.533490 -4.612960 -4.858088 -4.521978 -4.505523 -4.733473 -4.359523 -5.629588 -5.903982 -5.505908
42.113820 -3.516019 -4.597119 -4.833910 -4.506223 -4.488113 -4.708108 -4.336447 -5.609102 -5.865166 -5.471749
42.153820 -3.496474 -4.579710 -4.806170 -4.488924 -4.468619 -4.679064 -4.315570 -5.585797 -5.815327 -5.438524
42.193820 -3.477772 -4.563813 -4.778068 -4.472249 -4.449984 -4.633257 -4.302376 -5.562236 -5.774548 -5.419760
42.233820 -3.455547 -4.545061 -4.748812 -4.456404 -4.427881 -4.589611 -4.286937 -5.533906 -5.735420 -5.410147
42.273820 -3.434404 -4.528173 -4.726911 -4.440381 -4.406846 -4.565299 -4.278481 -5.505670 -5.692313 -5.402550
42.313820 -3.418397 -4.516295 -4.718051 -4.428579 -4.390966 -4.554524 -4.276637 -5.482832 -5.681170 -5.398971
42.353820 -3.407006 -4.507855 -4.714311 -4.425412 -4.379568 -4.553931 -4.277426 -5.467141 -5.674834 -5.400852
42.393820 -3.395905 -4.496385 -4.702580 -4.417497 -4.368562 -4.548463 -4.272942 -5.456116 -5.654976 -5.392058
42.433820 -3.388304 -4.487798 -4.691771 -4.411437 -4.360882 -4.545309 -4.268804 -5.450342 -5.649838 -5.385406
42.473820 -3.380834 -4.479465 -4.679707 -4.401939 -4.353713 -4.537208 -4.261256 -5.442661 -5.647206 -5.378225
42.513820 -3.373340 -4.471463 -4.667384 -4.390045 -4.346235 -4.533591 -4.254864 -5.435837 -5.644684 -5.374996
42.553820 -3.365826 -4.462846 -4.653886 -4.375909 -4.338906 -4.523361 -4.246320 -5.429043 -5.638687 -5.376536
42.593820 -3.358440 -4.453348 -4.639513 -4.360591 -4.331395 -4.515831 -4.240033 -5.425420 -5.634798 -5.372485
42.633820 -3.350400 -4.444216 -4.624432 -4.344925 -4.323584 -4.503380 -4.231528 -5.417885 -5.630193 -5.367356
42.673820 -3.342505 -4.434902 -4.610264 -4.329420 -4.315821 -4.494005 -4.223792 -5.411476 -5.628972 -5.368640
42.713820 -3.334382 -4.426046 -4.595206 -4.313310 -4.307956 -4.481989 -4.214910 -5.403182 -5.623802 -5.363635
42.753820 -3.326045 -4.415609 -4.580475 -4.296358 -4.299615 -4.470455 -4.206161 -5.398073 -5.616682 -5.356456
42.793820 -3.317866 -4.405899 -4.564594 -4.280666 -4.291456 -4.459530 -4.197741 -5.392156 -5.613468 -5.348944
42.833820 -3.308964 -4.395134 -4.548699 -4.263812 -4.282761 -4.445640 -4.185401 -5.385104 -5.606447 -5.340048
42.873820 -3.300241 -4.385388 -4.534945 -4.248690 -4.274251 -4.434463 -4.173443 -5.376908 -5.604148 -5.331889
42.913820 -3.291253 -4.374457 -4.520371 -4.231730 -4.265462 -4.418971 -4.160522 -5.369974 -5.596893 -5.325014
42.953820 -3.282020 -4.363290 -4.506730 -4.215697 -4.256203 -4.406548 -4.150255 -5.363949 -5.591057 -5.319913
42.993820 -3.272980 -4.352126 -4.492134 -4.199779 -4.247360 -4.390293 -4.143692 -5.357325 -5.582284 -5.314351
43.033820 -3.263168 -4.340610 -4.479590 -4.184231 -4.237672 -4.376780 -4.135727 -5.349638 -5.571191 -5.302593
43.073820 -3.253573 -4.329232 -4.465806 -4.167816 -4.228331 -4.361524 -4.118520 -5.341654 -5.559666 -5.287831
43.113820 -3.243603 -4.316949 -4.450223 -4.151064 -4.218432 -4.347150 -4.104191 -5.335146 -5.550545 -5.279045
43.153820 -3.233289 -4.304255 -4.432943 -4.134278 -4.208309 -4.332842 -4.094002 -5.327826 -5.543585 -5.268899
43.193820 -3.223214 -4.291824 -4.416300 -4.117195 -4.198345 -4.317645 -4.074299 -5.321170 -5.531297 -5.259349
43.233820 -3.212265 -4.278961 -4.402387 -4.103928 -4.187577 -4.302649 -4.060326 -5.312548 -5.519228 -5.242442
43.273820 -3.201586 -4.265953 -4.389161 -4.084663 -4.177061 -4.287381 -4.050442 -5.305048 -5.505026 -5.231371
43.313820 -3.190591 -4.253189 -4.376439 -4.073038 -4.166084 -4.274768 -4.041581 -5.297070 -5.493724 -5.222613
43.353820 -3.179311 -4.239547 -4.360851 -4.058861 -4.154905 -4.259858 -4.031358 -5.289449 -5.477416 -5.207940
43.393820 -3.168317 -4.226285 -4.346542 -4.041849 -4.144131 -4.246858 -4.019628 -5.281351 -5.465808 -5.194550
43.433820 -3.156507 -4.212228 -4.331060 -4.022783 -4.132623 -4.231842 -4.003462 -5.271983 -5.451259 -5.185298
43.473820 -3.145009 -4.198677 -4.323218 -4.004827 -4.121441 -4.218682 -3.990215 -5.262526 -5.437505 -5.176043
43.513820 -3.133172 -4.184714 -4.309919 -3.984413 -4.110006 -4.204220 -3.975474 -5.252421 -5.422795 -5.162965
43.553820 -3.121029 -4.170234 -4.296476 -3.969602 -4.098224 -4.189544 -3.958594 -5.242662 -5.408478 -5.151424
43.593820 -3.109217 -4.156037 -4.283644 -3.958078 -4.086801 -4.175843 -3.948889 -5.233205 -5.396940 -5.141042
43.633820 -3.096428 -4.140940 -4.269625 -3.942094 -4.074321 -4.159654 -3.936205 -5.223120 -5.384029 -5.128430
43.673820 -3.084004 -4.126120 -4.254818 -3.928622 -4.062305 -4.144293 -3.922049 -5.213049 -5.372880 -5.116909
43.713820 -3.071160 -4.111077 -4.240364 -3.912230 -4.049736 -4.126557 -3.907074 -5.202969 -5.359431 -5.102576
43.753820 -3.057942 -4.095805 -4.226212 -3.896989 -4.036789 -4.110932 -3.892183 -5.192284 -5.348854 -5.088720
43.793820 -3.045114 -4.080766 -4.212156 -3.882611 -4.024234 -4.097727 -3.877233 -5.182335 -5.337053 -5.073767
43.833820 -3.030950 -4.063788 -4.197413 -3.868679 -4.010552 -4.082549 -3.860257 -5.171114 -5.321415 -5.058069
43.873820 -3.017233 -4.047471 -4.181665 -3.848109 -3.997259 -4.067843 -3.844214 -5.160295 -5.306472 -5.042177
43.913820 -3.003104 -4.031376 -4.167760 -3.827747 -3.983365 -4.050075 -3.828212 -5.148892 -5.289401 -5.026515
43.953820 -2.988614 -4.015104 -4.147354 -3.806286 -3.969069 -4.031787 -3.811353 -5.137019 -5.274182 -5.011031
43.993820 -2.974593 -3.998435 -4.127148 -3.786486 -3.955505 -4.012388 -3.788227 -5.125946 -5.261402 -4.996170
44.033820 -2.959430 -3.981182 -4.105482 -3.774380 -3.940614 -3.993782 -3.769453 -5.113681 -5.247052 -4.979578
44.073820 -2.944780 -3.964400 -4.084126 -3.761339 -3.926260 -3.975069 -3.754768 -5.101913 -5.230795 -4.964185
44.113820 -2.929718 -3.948994 -4.067218 -3.750935 -3.910974 -3.956595 -3.738839 -5.088958 -5.214815 -4.945879
44.153820 -2.914304 -3.931001 -4.050205 -3.737223 -3.896080 -3.937160 -3.723137 -5.076135 -5.196110 -4.927923
44.193820 -2.899419 -3.915621 -4.034257 -3.727230 -3.880927 -3.919094 -3.708598 -5.063988 -5.180317 -4.912378
44.233820 -2.883440 -3.900236 -4.016529 -3.713568 -3.864302 -3.899579 -3.694410 -5.050620 -5.161945 -4.892048
44.273820 -2.868028 -3.884272 -4.003030 -3.700759 -3.848637 -3.881222 -3.678682 -5.038017 -5.144824 -4.876859
44.313820 -2.852385 -3.869122 -3.990087 -3.693184 -3.832485 -3.862639 -3.662981 -5.024407 -5.127494 -4.856031
44.353820 -2.836554 -3.851657 -3.976404 -3.682349 -3.816893 -3.843724 -3.647196 -5.010844 -5.112819 -4.837718
44.393820 -2.821280 -3.838529 -3.964630 -3.675072 -3.800633 -3.826190 -3.631123 -4.996802 -5.099334 -4.820385
44.433820 -2.805294 -3.823831 -3.949171 -3.670500 -3.783844 -3.808988 -3.616120 -4.982907 -5.086437 -4.803884
44.473820 -2.789876 -3.811352 -3.935581 -3.672748 -3.767559 -3.787959 -3.599112 -4.966222 -5.074180 -4.787055
44.513820 -2.774524 -3.801094 -3.925160 -3.672539 -3.750279 -3.767361 -3.584223 -4.951505 -5.060322 -4.771153
44.553820 -2.759251 -3.791530 -3.914432 -3.673829 -3.732925 -3.748867 -3.569851 -4.936663 -5.045025 -4.753238
44.593820 -2.744497 -3.782363 -3.905982 -3.668916 -3.716226 -3.727786 -3.556248 -4.921968 -5.031635 -4.737131
44.633820 -2.729531 -3.771594 -3.901151 -3.668998 -3.699853 -3.710916 -3.546127 -4.906838 -5.017785 -4.721298
44.673820 -2.715064 -3.764327 -3.899237 -3.671073 -3.683524 -3.696432 -3.531294 -4.888810 -5.000512 -4.702951
44.713820 -2.700967 -3.758968 -3.899891 -3.669203 -3.666666 -3.683071 -3.519043 -4.874055 -4.984971 -4.687341
44.753820 -2.687220 -3.753469 -3.892219 -3.666243 -3.650868 -3.665711 -3.509077 -4.856543 -4.968853 -4.670402
44.793820 -2.673895 -3.748538 -3.889305 -3.667878 -3.635603 -3.651507 -3.504351 -4.838862 -4.954465 -4.655259
44.833820 -2.661777 -3.743822 -3.894457 -3.668626 -3.622229 -3.635143 -3.504361 -4.820365 -4.939043 -4.636799
44.873820 -2.649988 -3.743793 -3.895552 -3.674329 -3.607695 -3.620196 -3.497183 -4.803847 -4.919477 -4.611695
44.913820 -2.639209 -3.744066 -3.898849 -3.681541 -3.594474 -3.610727 -3.491561 -4.788430 -4.897912 -4.590785
44.953820 -2.629373 -3.745728 -3.901160 -3.686804 -3.582863 -3.603747 -3.485487 -4.769698 -4.875716 -4.569855
44.993820 -2.619755 -3.749056 -3.905031 -3.694990 -3.571201 -3.603407 -3.480701 -4.751208 -4.856447 -4.554766
45.033820 -2.611410 -3.753855 -3.905755 -3.704423 -3.560892 -3.594152 -3.479708 -4.734052 -4.834951 -4.542839
45.073820 -2.603223 -3.760055 -3.916595 -3.716845 -3.550387 -3.588431 -3.480818 -4.718152 -4.815363 -4.530056
45.113820 -2.596176 -3.765572 -3.925480 -3.726375 -3.541824 -3.586542 -3.476038 -4.702144 -4.798879 -4.515298
45.153820 -2.590219 -3.776040 -3.937115 -3.736306 -3.534306 -3.580747 -3.474315 -4.683148 -4.782600 -4.497784
45.193820 -2.584342 -3.785135 -3.953549 -3.751442 -3.527067 -3.581737 -3.471149 -4.666088 -4.769103 -4.484323
45.233820 -2.581001 -3.797886 -3.970301 -3.769176 -3.522367 -3.587816 -3.470184 -4.651187 -4.758448 -4.469830
45.273820 -2.577685 -3.808917 -3.986264 -3.793558 -3.517949 -3.584877 -3.471829 -4.637817 -4.746673 -4.460545
45.313820 -2.575795 -3.821572 -4.001438 -3.814152 -3.515733 -3.588558 -3.471613 -4.622427 -4.733218 -4.451124
45.353820 -2.575311 -3.837521 -4.022499 -3.830931 -3.514817 -3.603254 -3.478611 -4.608066 -4.721430 -4.444771
45.393820 -2.574828 -3.851263 -4.047284 -3.846318 -3.514079 -3.609479 -3.483976 -4.595805 -4.707186 -4.446113
45.433820 -2.577237 -3.869172 -4.075571 -3.865891 -3.516683 -3.624834 -3.492681 -4.583982 -4.692852 -4.448751
45.473820 -2.579659 -3.884989 -4.103980 -3.883797 -3.519630 -3.641313 -3.499877 -4.573211 -4.683635 -4.451987
45.513820 -2.583535 -3.904879 -4.132591 -3.901703 -3.524212 -3.647974 -3.509048 -4.561889 -4.674682 -4.445524
45.553820 -2.588905 -3.926686 -4.163898 -3.925058 -3.529817 -3.657121 -3.516625 -4.554704 -4.668967 -4.449969
45.593820 -2.594342 -3.948179 -4.192336 -3.945820 -3.536470 -3.668895 -3.522585 -4.544570 -4.667823 -4.442439
45.633820 -2.602586 -3.971986 -4.226159 -3.972547 -3.546250 -3.689248 -3.535023 -4.537193 -4.669682 -4.440322
45.673820 -2.610989 -3.994353 -4.251528 -3.998668 -3.556197 -3.708042 -3.540239 -4.531705 -4.674135 -4.439697
45.713820 -2.620809 -4.020851 -4.280717 -4.028540 -3.567251 -3.728755 -3.549658 -4.528054 -4.679349 -4.446124
45.753820 -2.632141 -4.047421 -4.311343 -4.060342 -3.579791 -3.751751 -3.561387 -4.527442 -4.678668 -4.449473
45.793820 -2.643776 -4.074022 -4.339564 -4.090184 -3.593642 -3.772695 -3.574600 -4.524382 -4.675804 -4.456732
45.833820 -2.658001 -4.102914 -4.371123 -4.122105 -3.609836 -3.798120 -3.590810 -4.525593 -4.674171 -4.456623
45.873820 -2.672706 -4.132177 -4.403847 -4.153928 -3.626591 -3.821377 -3.607826 -4.527683 -4.677275 -4.463944
45.913820 -2.688557 -4.163282 -4.438411 -4.190436 -3.644119 -3.847711 -3.626776 -4.532386 -4.684411 -4.474796
45.953820 -2.705662 -4.193831 -4.474238 -4.224629 -3.663432 -3.872900 -3.646358 -4.537882 -4.694633 -4.482415
45.993820 -2.723469 -4.227728 -4.508258 -4.262420 -3.683836 -3.899987 -3.667420 -4.542551 -4.705913 -4.487584
46.033820 -2.742533 -4.262433 -4.542251 -4.297921 -3.705185 -3.926868 -3.690276 -4.550108 -4.719189 -4.497539
46.073820 -2.762473 -4.297262 -4.577815 -4.336812 -3.728067 -3.954155 -3.715395 -4.557485 -4.730969 -4.510304
46.113820 -2.783426 -4.332929 -4.619591 -4.377623 -3.751631 -3.983449 -3.739778 -4.567335 -4.748532 -4.522335
46.153820 -2.805499 -4.369693 -4.659558 -4.416660 -3.776422 -4.011607 -3.764127 -4.578491 -4.763638 -4.541071
46.193820 -2.828754 -4.409562 -4.701470 -4.458495 -3.802378 -4.042623 -3.792251 -4.590840 -4.781380 -4.560721
46.233820 -2.852716 -4.447834 -4.744101 -4.495850 -3.828995 -4.072576 -3.819820 -4.604988 -4.794615 -4.579202
46.273820 -2.878078 -4.489985 -4.791309 -4.540149 -3.857101 -4.105583 -3.849930 -4.620154 -4.813364 -4.596929
46.313820 -2.904221 -4.532166 -4.838019 -4.584860 -3.885825 -4.137936 -3.880399 -4.637033 -4.833697 -4.611386
46.353820 -2.931194 -4.575446 -4.886671 -4.630531 -3.915970 -4.172029 -3.912776 -4.653738 -4.858711 -4.633875
46.393820 -2.959955 -4.620702 -4.936359 -4.677298 -3.947524 -4.207311 -3.946342 -4.673406 -4.883441 -4.659259
46.433820 -2.988401 -4.665918 -4.985236 -4.723672 -3.979353 -4.241754 -3.980066 -4.691826 -4.904318 -4.684232
46.473820 -3.018841 -4.713785 -5.037139 -4.767496 -4.013580 -4.279241 -4.015451 -4.711716 -4.931189 -4.708602
46.513820 -3.049988 -4.760593 -5.087482 -4.812137 -4.047815 -4.316117 -4.048862 -4.734353 -4.954778 -4.731926
46.553820 -3.081833 -4.809827 -5.134224 -4.863793 -4.082956 -4.354713 -4.083039 -4.757341 -4.981451 -4.756194
46.593820 -3.116198 -4.860584 -5.182208 -4.917066 -4.120490 -4.397390 -4.118852 -4.783534 -5.008782 -4.782660
46.633820 -3.149047 -4.910523 -5.229579 -4.969443 -4.157375 -4.439398 -4.153537 -4.806847 -5.039334 -4.807747
46.673820 -3.184584 -4.962548 -5.278371 -5.024052 -4.196495 -4.481921 -4.191427 -4.834059 -5.072940 -4.835877
46.713820 -3.220678 -5.015553 -5.328353 -5.076608 -4.236824 -4.525266 -4.230098 -4.860959 -5.107361 -4.866207
46.753820 -3.257203 -5.068402 -5.377386 -5.128490 -4.278026 -4.568491 -4.268992 -4.887962 -5.141955 -4.896874
46.793820 -3.297083 -5.123984 -5.429684 -5.184137 -4.321985 -4.614627 -4.311254 -4.919676 -5.179703 -4.930459
46.833820 -3.334284 -5.176976 -5.478614 -5.237175 -4.363812 -4.657869 -4.350475 -4.948128 -5.214974 -4.961953
46.873820 -3.374973 -5.232985 -5.530419 -5.291913 -4.408935 -4.704236 -4.393995 -4.980695 -5.253354 -4.996560
46.913820 -3.416017 -5.289080 -5.582345 -5.347070 -4.454994 -4.750616 -4.438086 -5.013061 -5.292078 -5.031889
46.953820 -3.457109 -5.344806 -5.633184 -5.400752 -4.500566 -4.796843 -4.483199 -5.046557 -5.328767 -5.067781
46.993820 -3.502500 -5.404854 -5.689322 -5.456339 -4.550875 -4.847010 -4.532668 -5.083984 -5.370858 -5.108182
47.033820 -3.543767 -5.460077 -5.741173 -5.510582 -4.597234 -4.893757 -4.578275 -5.117364 -5.408975 -5.145061
47.073820 -3.589372 -5.519583 -5.798273 -5.568302 -4.647780 -4.946778 -4.628436 -5.155529 -5.451899 -5.186355
47.113820 -3.635174 -5.578002 -5.854249 -5.624024 -4.698432 -4.999920 -4.678687 -5.194316 -5.491692 -5.227363
47.153820 -3.680652 -5.636060 -5.912859 -5.678825 -4.748481 -5.052070 -4.728990 -5.233326 -5.529729 -5.267805
47.193820 -3.731455 -5.698487 -5.976836 -5.736153 -4.804189 -5.109321 -4.784246 -5.277496 -5.573513 -5.314078
47.233820 -3.776457 -5.754965 -6.035127 -5.785545 -4.853849 -5.160451 -4.833798 -5.316343 -5.611458 -5.354881
47.273820 -3.826667 -5.815639 -6.098969 -5.840187 -4.908676 -5.214686 -4.885848 -5.360661 -5.654704 -5.402267
47.313820 -3.876872 -5.875935 -6.163101 -5.895466 -4.963467 -5.265940 -4.938687 -5.405178 -5.698491 -5.449313
47.353820 -3.926272 -5.935428 -6.227530 -5.949809 -5.017366 -5.315166 -4.992676 -5.449122 -5.741751 -5.495987
47.393820 -3.982021 -6.001021 -6.298462 -6.016850 -5.077383 -5.371530 -5.055134 -5.499802 -5.792860 -5.548763
47.433820 -4.030348 -6.059265 -6.362387 -6.078113 -5.129937 -5.419442 -5.113098 -5.543212 -5.837979 -5.593255
47.473820 -4.084734 -6.123293 -6.429538 -6.145980 -5.188324 -5.473640 -5.168478 -5.593031 -5.888767 -5.641220
47.513820 -4.138856 -6.187106 -6.496896 -6.213098 -5.246408 -5.527791 -5.225180 -5.642717 -5.939399 -5.689192
47.553820 -4.191579 -6.249831 -6.563721 -6.273925 -5.302671 -5.584424 -5.281551 -5.691494 -5.989422 -5.738979
47.593820 -4.251599 -6.319763 -6.638574 -6.341510 -5.366277 -5.648233 -5.344159 -5.747602 -6.047879 -5.795798
47.633820 -4.302598 -6.381102 -6.708652 -6.405079 -5.420595 -5.703085 -5.393805 -5.794996 -6.097096 -5.844747
47.673820 -4.360392 -6.448983 -6.784979 -6.468808 -5.481542 -5.764511 -5.448752 -5.849413 -6.153155 -5.899995
47.713820 -4.417763 -6.516815 -6.861188 -6.532606 -5.541939 -5.825654 -5.503287 -5.903566 -6.207858 -5.954884
47.753820 -4.473284 -6.583800 -6.928745 -6.596551 -5.600205 -5.884822 -5.555960 -5.956139 -6.257783 -6.007363
47.793820 -4.536959 -6.658763 -7.013132 -6.668683 -5.666645 -5.952238 -5.616371 -6.016902 -6.315179 -6.067753
47.833820 -4.590244 -6.725023 -7.092316 -6.730780 -5.722598 -6.009349 -5.666874 -6.067346 -6.361305 -6.117825
47.873820 -4.650992 -6.797961 -7.181649 -6.801850 -5.785997 -6.073809 -5.726132 -6.125342 -6.414573 -6.174806
47.913820 -4.711207 -6.871770 -7.272402 -6.873502 -5.849104 -6.138590 -5.785189 -6.182593 -6.471000 -6.231341
47.953820 -4.769189 -6.943200 -7.364090 -6.945981 -5.909849 -6.203357 -5.843246 -6.237777 -6.524641 -6.282265
47.993820 -4.836122 -7.025331 -7.466734 -7.029411 -5.979837 -6.277795 -5.913666 -6.301659 -6.586108 -6.341635
48.033820 -4.891524 -7.097223 -7.561448 -7.101779 -6.038127 -6.341847 -5.975521 -6.354166 -6.637225 -6.389883
48.073820 -4.955040 -7.178728 -7.667188 -7.182210 -6.104847 -6.413328 -6.044762 -6.414540 -6.695827 -6.451171
48.113820 -5.017997 -7.261599 -7.774574 -7.257167 -6.171105 -6.485514 -6.114110 -6.474289 -6.754339 -6.513287
48.153820 -5.078447 -7.342865 -7.882982 -7.335955 -6.234926 -6.554824 -6.179214 -6.531521 -6.810367 -6.569181
